0	0	0	0	0	487	419	
1	0	0	0	0	476	418	
2	0	0	0	0	469	418	
3	0	0	0	0	471	418	
4	0	0	0	0	470	418	
5	0	0	0	0	475	418	
6	0	0	0	0	483	418	
7	0	0	0	0	491	419	
8	0	0	0	0	499	418	
9	0	0	0	0	504	418	
10	0	0	0	0	504	418	
11	0	0	0	0	495	418	
12	0	0	0	0	487	418	
13	0	0	0	0	491	418	
14	0	0	0	0	503	418	
15	0	0	0	0	510	418	
0	0	0	0	0	511	418	
1	0	0	0	0	508	418	
2	0	0	0	0	514	418	
3	0	0	0	0	517	418	
4	0	0	0	0	515	418	
5	0	0	0	0	509	418	
6	0	0	0	0	503	418	
7	0	0	0	0	497	418	
8	0	0	0	0	495	418	
9	0	0	0	0	498	418	
10	0	0	0	0	500	418	
11	0	0	0	0	506	418	
12	0	0	0	0	512	418	
13	0	0	0	0	514	418	
14	0	0	0	0	514	418	
15	0	0	0	0	519	418	
0	0	0	0	0	524	418	
1	0	0	0	0	527	418	
2	0	0	0	0	523	418	
3	0	0	0	0	517	418	
4	0	0	0	0	510	418	
5	0	0	0	0	504	418	
6	0	0	0	0	504	418	
7	0	0	0	0	504	418	
8	0	0	0	0	502	418	
9	0	0	0	0	495	418	
10	0	0	0	0	490	418	
11	0	0	0	0	494	418	
12	0	0	0	0	502	418	
13	0	0	0	0	504	418	
14	0	0	0	0	499	418	
15	0	0	0	0	492	418	
0	0	0	0	0	490	418	
1	0	0	0	0	494	418	
2	0	0	0	0	502	418	
3	0	0	0	0	508	418	
4	0	0	0	0	507	418	
5	0	0	0	0	499	418	
6	0	0	0	0	490	418	
7	0	0	0	0	488	418	
8	0	0	0	0	495	418	
9	0	0	0	0	499	418	
10	0	0	0	0	499	418	
11	0	0	0	0	499	418	
12	0	0	0	0	500	418	
13	0	0	0	0	499	418	
14	0	0	0	0	494	418	
15	0	0	0	0	492	418	
0	0	0	0	0	494	418	
1	0	0	0	0	495	418	
2	0	0	0	0	499	418	
3	0	0	0	0	493	418	
4	0	0	0	0	487	418	
5	0	0	0	0	486	418	
6	0	0	0	0	488	418	
7	0	0	0	0	491	418	
8	0	0	0	0	499	418	
9	0	0	0	0	506	418	
10	0	0	0	0	511	418	
11	0	0	0	0	519	418	
12	0	0	0	0	526	418	
13	0	0	0	0	527	418	
14	0	0	0	0	525	418	
15	0	0	0	0	520	418	
0	0	0	0	0	513	418	
1	0	0	0	0	505	418	
2	0	0	0	0	502	418	
3	0	0	0	0	508	418	
4	0	0	0	0	516	418	
5	0	0	0	0	520	418	
6	0	0	0	0	523	418	
7	0	0	0	0	529	418	
8	0	0	0	0	537	418	
9	0	0	0	0	540	418	
10	0	0	0	0	536	418	
11	0	0	0	0	527	418	
12	0	0	0	0	513	418	
13	0	0	0	0	505	418	
14	0	0	0	0	502	418	
15	0	0	0	0	499	418	
0	0	0	0	0	505	418	
1	0	0	0	0	513	418	
2	0	0	0	0	510	418	
3	0	0	0	0	503	418	
4	0	0	0	0	500	418	
5	0	0	0	0	497	418	
6	0	0	0	0	498	418	
7	0	0	0	0	499	418	
8	0	0	0	0	506	418	
9	0	0	0	0	511	418	
10	0	0	0	0	515	418	
11	0	0	0	0	519	418	
12	0	0	0	0	514	418	
13	0	0	0	0	504	418	
14	0	0	0	0	491	418	
15	0	0	0	0	482	418	
0	0	0	0	0	496	418	
1	0	0	0	0	504	418	
2	0	0	0	0	509	418	
3	0	0	0	0	510	418	
4	0	0	0	0	509	418	
5	0	0	0	0	512	418	
6	0	0	0	0	512	418	
7	0	0	0	0	514	418	
8	0	0	0	0	519	418	
9	0	0	0	0	517	418	
10	0	0	0	0	515	418	
11	0	0	0	0	515	418	
12	0	0	0	0	502	418	
13	0	0	0	0	487	418	
14	0	0	0	0	483	418	
15	0	0	0	0	495	418	
0	0	0	0	0	506	418	
1	0	0	0	0	507	418	
2	0	0	0	0	508	418	
3	0	0	0	0	509	418	
4	0	0	0	0	516	418	
5	0	0	0	0	517	418	
6	0	0	0	0	512	418	
7	0	0	0	0	498	418	
8	0	0	0	0	481	418	
9	0	0	0	0	477	418	
10	0	0	0	0	476	418	
11	0	0	0	0	470	418	
12	0	0	0	0	477	418	
13	0	0	0	0	492	418	
14	0	0	0	0	504	418	
15	0	0	0	0	513	418	
0	0	0	0	0	512	418	
1	0	0	0	0	513	418	
2	0	0	0	0	517	418	
3	0	0	0	0	522	418	
4	0	0	0	0	525	418	
5	0	0	0	0	525	418	
6	0	0	0	0	527	418	
7	0	0	0	0	526	418	
8	0	0	0	0	517	418	
9	0	0	0	0	508	418	
10	0	0	0	0	505	418	
11	0	0	0	0	504	418	
12	0	0	0	0	505	418	
13	0	0	0	0	510	418	
14	0	0	0	0	502	417	
15	0	0	0	0	504	418	
0	0	0	0	0	509	418	
1	0	0	0	0	515	418	
2	0	0	0	0	522	418	
3	0	0	0	0	527	418	
4	0	0	0	0	534	418	
5	0	0	0	0	538	418	
6	0	0	0	0	539	418	
7	0	0	0	0	536	418	
8	0	0	0	0	533	418	
9	0	0	0	0	534	418	
10	0	0	0	0	543	418	
11	0	0	0	0	542	418	
12	0	0	0	0	534	418	
13	0	0	0	0	532	418	
14	0	0	0	0	527	418	
15	0	0	0	0	516	418	
0	0	0	0	0	506	418	
1	0	0	0	0	502	418	
2	0	0	0	0	503	418	
3	0	0	0	0	507	418	
4	0	0	0	0	508	418	
5	0	0	0	0	506	418	
6	0	0	0	0	500	418	
7	0	0	0	0	493	418	
8	0	0	0	0	492	418	
9	0	0	0	0	490	418	
10	0	0	0	0	494	418	
11	0	0	0	0	497	418	
12	0	0	0	0	499	418	
13	0	0	0	0	506	418	
14	0	0	0	0	519	418	
15	0	0	0	0	526	418	
0	0	0	0	0	529	418	
1	0	0	0	0	531	418	
2	0	0	0	0	536	418	
3	0	0	0	0	543	418	
4	0	0	0	0	541	418	
5	0	0	0	0	533	418	
6	0	0	0	0	526	418	
7	0	0	0	0	526	418	
8	0	0	0	0	522	418	
9	0	0	0	0	511	418	
10	0	0	0	0	511	418	
11	0	0	0	0	508	418	
12	0	0	0	0	504	418	
13	0	0	0	0	504	418	
14	0	0	0	0	504	418	
15	0	0	0	0	498	418	
0	0	0	0	0	493	418	
1	0	0	0	0	495	418	
2	0	0	0	0	496	418	
3	0	0	0	0	497	418	
4	0	0	0	0	503	418	
5	0	0	0	0	503	418	
6	0	0	0	0	507	418	
7	0	0	0	0	514	418	
8	0	0	0	0	515	418	
9	0	0	0	0	523	418	
10	0	0	0	0	537	418	
11	0	0	0	0	543	418	
12	0	0	0	0	543	418	
13	0	0	0	0	538	418	
14	0	0	0	0	542	418	
15	0	0	0	0	541	418	
0	0	0	0	0	532	418	
1	0	0	0	0	524	418	
2	0	0	0	0	516	418	
3	0	0	0	0	510	418	
4	0	0	0	0	511	418	
5	0	0	0	0	521	418	
6	0	0	0	0	537	418	
7	0	0	0	0	549	418	
8	0	0	0	0	562	418	
9	0	0	0	0	561	418	
10	0	0	0	0	551	418	
11	0	0	0	0	537	418	
12	0	0	0	0	522	418	
13	0	0	0	0	519	418	
14	0	0	0	0	516	418	
15	0	0	0	0	516	418	
0	0	0	0	0	518	418	
1	0	0	0	0	519	418	
2	0	0	0	0	523	418	
3	0	0	0	0	523	418	
4	0	0	0	0	522	418	
5	0	0	0	0	518	418	
6	0	0	0	0	524	418	
7	0	0	0	0	529	418	
8	0	0	0	0	536	418	
9	0	0	0	0	545	418	
10	0	0	0	0	543	418	
11	0	0	0	0	540	418	
12	0	0	0	0	545	418	
13	0	0	0	0	553	418	
14	0	0	0	0	561	418	
15	0	0	0	0	559	418	
0	0	0	0	0	559	418	
1	0	0	0	0	561	418	
2	0	0	0	0	558	418	
3	0	0	0	0	556	418	
4	0	0	0	0	547	418	
5	0	0	0	0	527	418	
6	0	0	0	0	512	418	
7	0	0	0	0	496	418	
8	0	0	0	0	484	418	
9	0	0	0	0	480	418	
10	0	0	0	0	474	418	
11	0	0	0	0	478	418	
12	0	0	0	0	487	418	
13	0	0	0	0	500	418	
14	0	0	0	0	519	418	
15	0	0	0	0	529	418	
0	0	0	0	0	530	418	
1	0	0	0	0	521	418	
2	0	0	0	0	513	418	
3	0	0	0	0	509	418	
4	0	0	0	0	500	418	
5	0	0	0	0	487	418	
6	0	0	0	0	486	418	
7	0	0	0	0	488	418	
8	0	0	0	0	492	418	
9	0	0	0	0	496	418	
10	0	0	0	0	491	418	
11	0	0	0	0	496	418	
12	0	0	0	0	508	418	
13	0	0	0	0	518	418	
14	0	0	0	0	519	418	
15	0	0	0	0	515	418	
0	0	0	0	0	508	418	
1	0	0	0	0	489	418	
2	0	0	0	0	471	418	
3	0	0	0	0	471	418	
4	0	0	0	0	475	418	
5	0	0	0	0	477	418	
6	0	0	0	0	478	418	
7	0	0	0	0	484	418	
8	0	0	0	0	491	418	
9	0	0	0	0	496	418	
10	0	0	0	0	498	418	
11	0	0	0	0	500	418	
12	0	0	0	0	502	418	
13	0	0	0	0	505	418	
14	0	0	0	0	512	418	
15	0	0	0	0	515	418	
0	0	0	0	0	519	418	
1	0	0	0	0	520	418	
2	0	0	0	0	519	418	
3	0	0	0	0	516	418	
4	0	0	0	0	510	418	
5	0	0	0	0	502	418	
6	0	0	0	0	496	418	
7	0	0	0	0	490	418	
8	0	0	0	0	492	418	
9	0	0	0	0	496	418	
10	0	0	0	0	499	418	
11	0	0	0	0	506	418	
12	0	0	0	0	502	418	
13	0	0	0	0	498	418	
14	0	0	0	0	494	418	
15	0	0	0	0	494	418	
0	0	0	0	0	496	418	
1	0	0	0	0	487	418	
2	0	0	0	0	480	418	
3	0	0	0	0	470	418	
4	0	0	0	0	465	418	
5	0	0	0	0	476	418	
6	0	0	0	0	492	418	
7	0	0	0	0	508	418	
8	0	0	0	0	526	418	
9	0	0	0	0	539	418	
10	0	0	0	0	543	419	
11	0	0	0	0	541	418	
12	0	0	0	0	540	418	
13	0	0	0	0	537	418	
14	0	0	0	0	542	418	
15	0	0	0	0	549	419	
0	0	0	0	0	555	418	
1	0	0	0	0	553	418	
2	0	0	0	0	540	418	
3	0	0	0	0	528	418	
4	0	0	0	0	516	418	
5	0	0	0	0	501	418	
6	0	0	0	0	491	418	
7	0	0	0	0	487	418	
8	0	0	0	0	487	419	
9	0	0	0	0	486	418	
10	0	0	0	0	484	418	
11	0	0	0	0	486	419	
12	0	0	0	0	492	418	
13	0	0	0	0	501	418	
14	0	0	0	0	513	419	
15	0	0	0	0	525	418	
0	0	0	0	0	535	418	
1	0	0	0	0	547	418	
2	0	0	0	0	561	418	
3	0	0	0	0	577	419	
4	0	0	0	0	594	419	
5	0	0	0	0	608	419	
6	0	0	0	0	616	419	
7	0	0	0	0	620	419	
8	0	0	0	0	630	419	
9	0	0	0	0	644	419	
10	0	0	0	0	657	418	
11	0	0	0	0	666	419	
12	0	0	0	0	679	419	
13	0	0	0	0	691	419	
14	0	0	0	0	705	419	
15	0	0	0	0	718	419	
0	0	0	0	0	731	419	
1	0	0	0	0	736	419	
2	0	0	0	0	747	419	
3	0	0	0	0	762	419	
4	0	0	0	0	766	419	
5	0	0	0	0	764	419	
6	0	0	0	0	766	419	
7	0	0	0	0	764	419	
8	0	0	0	0	759	419	
9	0	0	0	0	753	419	
10	0	0	0	0	750	419	
11	0	0	0	0	744	419	
12	0	0	0	0	734	419	
13	0	0	0	0	721	419	
14	0	0	0	0	709	419	
15	0	0	0	0	687	419	
0	0	0	0	0	661	419	
1	0	0	0	0	643	419	
2	0	0	0	0	624	419	
3	0	0	0	0	602	419	
4	0	0	0	0	583	419	
5	0	0	0	0	564	419	
6	0	0	0	0	548	419	
7	0	0	0	0	535	419	
8	0	0	0	0	527	419	
9	0	0	0	0	530	419	
10	0	0	0	0	531	419	
11	0	0	0	0	523	419	
12	0	0	0	0	512	419	
13	0	0	0	0	503	419	
14	0	0	0	0	499	419	
15	0	0	0	0	490	419	
0	0	0	0	0	479	419	
1	0	0	0	0	468	419	
2	0	0	0	0	453	419	
3	0	0	0	0	446	419	
4	0	0	0	0	451	419	
5	0	0	0	0	451	419	
6	0	0	0	0	450	419	
7	0	0	0	0	455	419	
8	0	0	0	0	457	419	
9	0	0	0	0	446	419	
10	0	0	0	0	443	419	
11	0	0	0	0	446	419	
12	0	0	0	0	443	419	
13	0	0	0	0	447	419	
14	0	0	0	0	457	419	
15	0	0	0	0	464	419	
0	0	0	0	0	457	419	
1	0	0	0	0	453	419	
2	0	0	0	0	455	419	
3	0	0	0	0	454	419	
4	0	0	0	0	453	419	
5	0	0	0	0	446	419	
6	0	0	0	0	434	419	
7	0	0	0	0	418	419	
8	0	0	0	0	420	419	
9	0	0	0	0	424	419	
10	0	0	0	0	419	419	
11	0	0	0	0	423	419	
12	0	0	0	0	431	419	
13	0	0	0	0	441	419	
14	0	0	0	0	451	419	
15	0	0	0	0	454	419	
0	0	0	0	0	449	419	
1	0	0	0	0	448	419	
2	0	0	0	0	458	419	
3	0	0	0	0	465	419	
4	0	0	0	0	471	419	
5	0	0	0	0	470	419	
6	0	0	0	0	460	418	
7	0	0	0	0	446	419	
8	0	0	0	0	434	419	
9	0	0	0	0	429	419	
10	0	0	0	0	434	419	
11	0	0	0	0	440	418	
12	0	0	0	0	445	419	
13	0	0	0	0	447	418	
14	0	0	0	0	450	418	
15	0	0	0	0	453	419	
0	0	0	0	0	453	418	
1	0	0	0	0	451	418	
2	0	0	0	0	452	418	
3	0	0	0	0	454	418	
4	0	0	0	0	456	418	
5	0	0	0	0	465	418	
6	0	0	0	0	476	418	
7	0	0	0	0	480	418	
8	0	0	0	0	476	418	
9	0	0	0	0	480	418	
10	0	0	0	0	482	418	
11	0	0	0	0	477	418	
12	0	0	0	0	465	418	
13	0	0	0	0	453	418	
14	0	0	0	0	448	418	
15	0	0	0	0	452	418	
0	0	0	0	0	461	418	
1	0	0	0	0	462	418	
2	0	0	0	0	460	418	
3	0	0	0	0	462	418	
4	0	0	0	0	468	418	
5	0	0	0	0	475	418	
6	0	0	0	0	476	418	
7	0	0	0	0	468	418	
8	0	0	0	0	460	418	
9	0	0	0	0	452	418	
10	0	0	0	0	449	418	
11	0	0	0	0	456	418	
12	0	0	0	0	458	418	
13	0	0	0	0	458	418	
14	0	0	0	0	463	418	
15	0	0	0	0	462	418	
0	0	0	0	0	462	418	
1	0	0	0	0	473	418	
2	0	0	0	0	488	418	
3	0	0	0	0	494	418	
4	0	0	0	0	495	418	
5	0	0	0	0	487	418	
6	0	0	0	0	482	418	
7	0	0	0	0	482	418	
8	0	0	0	0	483	418	
9	0	0	0	0	485	418	
10	0	0	0	0	483	418	
11	0	0	0	0	484	418	
12	0	0	0	0	484	418	
13	0	0	0	0	485	418	
14	0	0	0	0	495	418	
15	0	0	0	0	497	418	
0	0	0	0	0	494	418	
1	0	0	0	0	500	418	
2	0	0	0	0	499	418	
3	0	0	0	0	485	418	
4	0	0	0	0	478	418	
5	0	0	0	0	479	418	
6	0	0	0	0	486	418	
7	0	0	0	0	492	418	
8	0	0	0	0	492	418	
9	0	0	0	0	496	418	
10	0	0	0	0	503	418	
11	0	0	0	0	506	418	
12	0	0	0	0	503	418	
13	0	0	0	0	500	418	
14	0	0	0	0	501	418	
15	0	0	0	0	502	418	
0	0	0	0	0	505	418	
1	0	0	0	0	510	418	
2	0	0	0	0	510	418	
3	0	0	0	0	509	418	
4	0	0	0	0	508	418	
5	0	0	0	0	500	418	
6	0	0	0	0	491	418	
7	0	0	0	0	482	418	
8	0	0	0	0	474	418	
9	0	0	0	0	474	418	
10	0	0	0	0	482	418	
11	0	0	0	0	491	418	
12	0	0	0	0	505	418	
13	0	0	0	0	518	418	
14	0	0	0	0	524	418	
15	0	0	0	0	524	418	
0	0	0	0	0	523	418	
1	0	0	0	0	521	418	
2	0	0	0	0	520	418	
3	0	0	0	0	523	418	
4	0	0	0	0	518	418	
5	0	0	0	0	515	418	
6	0	0	0	0	516	418	
7	0	0	0	0	515	418	
8	0	0	0	0	513	418	
9	0	0	0	0	507	418	
10	0	0	0	0	497	418	
11	0	0	0	0	499	418	
12	0	0	0	0	509	418	
13	0	0	0	0	512	418	
14	0	0	0	0	518	418	
15	0	0	0	0	526	418	
0	0	0	0	0	532	418	
1	0	0	0	0	539	418	
2	0	0	0	0	533	418	
3	0	0	0	0	524	418	
4	0	0	0	0	524	418	
5	0	0	0	0	521	418	
6	0	0	0	0	518	418	
7	0	0	0	0	522	418	
8	0	0	0	0	523	418	
9	0	0	0	0	522	417	
10	0	0	0	0	519	418	
11	0	0	0	0	517	418	
12	0	0	0	0	516	418	
13	0	0	0	0	516	418	
14	0	0	0	0	519	418	
15	0	0	0	0	511	418	
0	0	0	0	0	499	417	
1	0	0	0	0	511	417	
2	0	0	0	0	532	417	
3	0	0	0	0	544	417	
4	0	0	0	0	552	418	
5	0	0	0	0	555	417	
6	0	0	0	0	551	417	
7	0	0	0	0	537	417	
8	0	0	0	0	531	417	
9	0	0	0	0	535	417	
10	0	0	0	0	536	418	
11	0	0	0	0	532	417	
12	0	0	0	0	531	417	
13	0	0	0	0	524	417	
14	0	0	0	0	521	417	
15	0	0	0	0	526	418	
0	0	0	0	0	523	417	
1	0	0	0	0	511	417	
2	0	0	0	0	505	417	
3	0	0	0	0	506	417	
4	0	0	0	0	513	417	
5	0	0	0	0	530	417	
6	0	0	0	0	545	417	
7	0	0	0	0	551	417	
8	0	0	0	0	551	417	
9	0	0	0	0	555	417	
10	0	0	0	0	554	417	
11	0	0	0	0	551	417	
12	0	0	0	0	556	417	
13	0	0	0	0	561	417	
14	0	0	0	0	564	417	
15	0	0	0	0	557	417	
0	0	0	0	0	550	417	
1	0	0	0	0	549	417	
2	0	0	0	0	556	417	
3	0	0	0	0	562	417	
4	0	0	0	0	567	417	
5	0	0	0	0	576	417	
6	0	0	0	0	582	417	
7	0	0	0	0	579	417	
8	0	0	0	0	570	417	
9	0	0	0	0	553	417	
10	0	0	0	0	542	417	
11	0	0	0	0	534	417	
12	0	0	0	0	528	417	
13	0	0	0	0	525	417	
14	0	0	0	0	531	417	
15	0	0	0	0	541	417	
0	0	0	0	0	543	417	
1	0	0	0	0	537	417	
2	0	0	0	0	540	417	
3	0	0	0	0	551	417	
4	0	0	0	0	557	417	
5	0	0	0	0	561	417	
6	0	0	0	0	558	417	
7	0	0	0	0	555	417	
8	0	0	0	0	551	417	
9	0	0	0	0	552	417	
10	0	0	0	0	555	417	
11	0	0	0	0	560	417	
12	0	0	0	0	568	417	
13	0	0	0	0	565	417	
14	0	0	0	0	560	417	
15	0	0	0	0	560	417	
0	0	0	0	0	562	417	
1	0	0	0	0	561	417	
2	0	0	0	0	556	417	
3	0	0	0	0	552	417	
4	0	0	0	0	540	417	
5	0	0	0	0	531	417	
6	0	0	0	0	518	417	
7	0	0	0	0	518	417	
8	0	0	0	0	518	417	
9	0	0	0	0	510	417	
10	0	0	0	0	508	417	
11	0	0	0	0	517	417	
12	0	0	0	0	524	417	
13	0	0	0	0	528	417	
14	0	0	0	0	528	417	
15	0	0	0	0	529	417	
0	0	0	0	0	530	417	
1	0	0	0	0	524	417	
2	0	0	0	0	506	417	
3	0	0	0	0	496	417	
4	0	0	0	0	493	417	
5	0	0	0	0	492	417	
6	0	0	0	0	498	417	
7	0	0	0	0	508	417	
8	0	0	0	0	512	417	
9	0	0	0	0	515	417	
10	0	0	0	0	514	417	
11	0	0	0	0	509	417	
12	0	0	0	0	504	417	
13	0	0	0	0	497	417	
14	0	0	0	0	489	417	
15	0	0	0	0	483	417	
0	0	0	0	0	478	417	
1	0	0	0	0	479	417	
2	0	0	0	0	479	417	
3	0	0	0	0	476	417	
4	0	0	0	0	480	417	
5	0	0	0	0	490	417	
6	0	0	0	0	497	417	
7	0	0	0	0	500	417	
8	0	0	0	0	500	417	
9	0	0	0	0	502	417	
10	0	0	0	0	507	417	
11	0	0	0	0	507	417	
12	0	0	0	0	503	417	
13	0	0	0	0	491	417	
14	0	0	0	0	481	418	
15	0	0	0	0	477	417	
0	0	0	0	0	475	417	
1	0	0	0	0	475	417	
2	0	0	0	0	478	417	
3	0	0	0	0	486	417	
4	0	0	0	0	493	417	
5	0	0	0	0	502	417	
6	0	0	0	0	511	417	
7	0	0	0	0	515	417	
8	0	0	0	0	510	417	
9	0	0	0	0	499	417	
10	0	0	0	0	493	417	
11	0	0	0	0	496	417	
12	0	0	0	0	494	417	
13	0	0	0	0	493	417	
14	0	0	0	0	487	417	
15	0	0	0	0	485	417	
0	0	0	0	0	484	417	
1	0	0	0	0	484	417	
2	0	0	0	0	485	417	
3	0	0	0	0	485	417	
4	0	0	0	0	481	417	
5	0	0	0	0	478	417	
6	0	0	0	0	487	417	
7	0	0	0	0	493	417	
8	0	0	0	0	493	417	
9	0	0	0	0	488	417	
10	0	0	0	0	489	417	
11	0	0	0	0	493	417	
12	0	0	0	0	496	417	
13	0	0	0	0	497	417	
14	0	0	0	0	494	417	
15	0	0	0	0	481	417	
0	0	0	0	0	469	417	
1	0	0	0	0	465	417	
2	0	0	0	0	470	417	
3	0	0	0	0	471	417	
4	0	0	0	0	471	417	
5	0	0	0	0	471	417	
6	0	0	0	0	478	417	
7	0	0	0	0	479	417	
8	0	0	0	0	473	417	
9	0	0	0	0	470	417	
10	0	0	0	0	462	417	
11	0	0	0	0	455	417	
12	0	0	0	0	459	417	
13	0	0	0	0	470	417	
14	0	0	0	0	475	417	
15	0	0	0	0	477	417	
0	0	0	0	0	479	417	
1	0	0	0	0	477	417	
2	0	0	0	0	479	417	
3	0	0	0	0	477	417	
4	0	0	0	0	473	417	
5	0	0	0	0	475	417	
6	0	0	0	0	477	417	
7	0	0	0	0	476	417	
8	0	0	0	0	479	417	
9	0	0	0	0	483	417	
10	0	0	0	0	489	417	
11	0	0	0	0	495	417	
12	0	0	0	0	495	417	
13	0	0	0	0	489	417	
14	0	0	0	0	490	417	
15	0	0	0	0	491	417	
0	0	0	0	0	495	417	
1	0	0	0	0	500	417	
2	0	0	0	0	500	417	
3	0	0	0	0	496	417	
4	0	0	0	0	494	417	
5	0	0	0	0	485	417	
6	0	0	0	0	473	417	
7	0	0	0	0	471	417	
8	0	0	0	0	476	417	
9	0	0	0	0	481	417	
10	0	0	0	0	481	417	
11	0	0	0	0	484	417	
12	0	0	0	0	487	417	
13	0	0	0	0	495	417	
14	0	0	0	0	498	417	
15	0	0	0	0	504	417	
0	0	0	0	0	515	417	
1	0	0	0	0	521	417	
2	0	0	0	0	513	417	
3	0	0	0	0	504	417	
4	0	0	0	0	490	417	
5	0	0	0	0	482	417	
6	0	0	0	0	480	417	
7	0	0	0	0	476	417	
8	0	0	0	0	478	417	
9	0	0	0	0	478	417	
10	0	0	0	0	481	417	
11	0	0	0	0	484	417	
12	0	0	0	0	492	417	
13	0	0	0	0	497	417	
14	0	0	0	0	503	417	
15	0	0	0	0	511	417	
0	0	0	0	0	510	417	
1	0	0	0	0	509	417	
2	0	0	0	0	512	417	
3	0	0	0	0	501	417	
4	0	0	0	0	488	417	
5	0	0	0	0	481	417	
6	0	0	0	0	480	417	
7	0	0	0	0	480	417	
8	0	0	0	0	484	417	
9	0	0	0	0	496	417	
10	0	0	0	0	504	417	
11	0	0	0	0	508	417	
12	0	0	0	0	510	417	
13	0	0	0	0	508	417	
14	0	0	0	0	512	417	
15	0	0	0	0	517	417	
0	0	0	0	0	519	417	
1	0	0	0	0	520	417	
2	0	0	0	0	527	417	
3	0	0	0	0	527	417	
4	0	0	0	0	530	417	
5	0	0	0	0	533	417	
6	0	0	0	0	529	417	
7	0	0	0	0	522	417	
8	0	0	0	0	515	417	
9	0	0	0	0	513	417	
10	0	0	0	0	513	417	
11	0	0	0	0	518	417	
12	0	0	0	0	517	417	
13	0	0	0	0	510	417	
14	0	0	0	0	504	416	
15	0	0	0	0	506	417	
0	0	0	0	0	503	417	
1	0	0	0	0	500	417	
2	0	0	0	0	506	417	
3	0	0	0	0	504	417	
4	0	0	0	0	504	417	
5	0	0	0	0	507	417	
6	0	0	0	0	515	417	
7	0	0	0	0	524	417	
8	0	0	0	0	531	417	
9	0	0	0	0	540	417	
10	0	0	0	0	548	417	
11	0	0	0	0	542	417	
12	0	0	0	0	530	417	
13	0	0	0	0	519	417	
14	0	0	0	0	508	417	
15	0	0	0	0	502	417	
0	0	0	0	0	493	417	
1	0	0	0	0	485	417	
2	0	0	0	0	478	417	
3	0	0	0	0	486	417	
4	0	0	0	0	497	417	
5	0	0	0	0	504	417	
6	0	0	0	0	509	417	
7	0	0	0	0	512	417	
8	0	0	0	0	508	417	
9	0	0	0	0	505	417	
10	0	0	0	0	503	417	
11	0	0	0	0	502	417	
12	0	0	0	0	503	417	
13	0	0	0	0	505	417	
14	0	0	0	0	510	417	
15	0	0	0	0	512	417	
0	0	0	0	0	519	417	
1	0	0	0	0	527	417	
2	0	0	0	0	536	417	
3	0	0	0	0	539	417	
4	0	0	0	0	536	417	
5	0	0	0	0	535	417	
6	0	0	0	0	540	417	
7	0	0	0	0	544	417	
8	0	0	0	0	539	417	
9	0	0	0	0	521	417	
10	0	0	0	0	494	417	
11	0	0	0	0	473	417	
12	0	0	0	0	471	417	
13	0	0	0	0	470	417	
14	0	0	0	0	470	417	
15	0	0	0	0	478	417	
0	0	0	0	0	486	417	
1	0	0	0	0	492	417	
2	0	0	0	0	506	417	
3	0	0	0	0	526	417	
4	0	0	0	0	532	417	
5	0	0	0	0	532	417	
6	0	0	0	0	534	417	
7	0	0	0	0	538	417	
8	0	0	0	0	540	417	
9	0	0	0	0	544	417	
10	0	0	0	0	543	417	
11	0	0	0	0	534	417	
12	0	0	0	0	522	417	
13	0	0	0	0	518	417	
14	0	0	0	0	516	417	
15	0	0	0	0	513	417	
0	0	0	0	0	508	417	
1	0	0	0	0	507	417	
2	0	0	0	0	510	417	
3	0	0	0	0	510	417	
4	0	0	0	0	515	417	
5	0	0	0	0	524	417	
6	0	0	0	0	531	418	
7	0	0	0	0	532	417	
8	0	0	0	0	533	418	
9	0	0	0	0	529	417	
10	0	0	0	0	520	417	
11	0	0	0	0	512	418	
12	0	0	0	0	510	417	
13	0	0	0	0	514	418	
14	0	0	0	0	519	418	
15	0	0	0	0	519	417	
0	0	0	0	0	513	418	
1	0	0	0	0	506	418	
2	0	0	0	0	502	418	
3	0	0	0	0	495	417	
4	0	0	0	0	483	418	
5	0	0	0	0	480	418	
6	0	0	0	0	488	418	
7	0	0	0	0	499	418	
8	0	0	0	0	504	418	
9	0	0	0	0	510	418	
10	0	0	0	0	518	418	
11	0	0	0	0	523	418	
12	0	0	0	0	529	418	
13	0	0	0	0	527	418	
14	0	0	0	0	527	418	
15	0	0	0	0	529	418	
0	0	0	0	0	536	418	
1	0	0	0	0	542	418	
2	0	0	0	0	539	418	
3	0	0	0	0	531	418	
4	0	0	0	0	531	418	
5	0	0	0	0	534	418	
6	0	0	0	0	527	418	
7	0	0	0	0	518	418	
8	0	0	0	0	510	418	
9	0	0	0	0	503	418	
10	0	0	0	0	504	418	
11	0	0	0	0	512	418	
12	0	0	0	0	522	418	
13	0	0	0	0	526	418	
14	0	0	0	0	527	418	
15	0	0	0	0	526	418	
0	0	0	0	0	526	418	
1	0	0	0	0	524	418	
2	0	0	0	0	519	418	
3	0	0	0	0	507	418	
4	0	0	0	0	497	418	
5	0	0	0	0	499	417	
6	0	0	0	0	501	418	
7	0	0	0	0	508	417	
8	0	0	0	0	512	418	
9	0	0	0	0	509	418	
10	0	0	0	0	508	418	
11	0	0	0	0	504	418	
12	0	0	0	0	503	417	
13	0	0	0	0	514	418	
14	0	0	0	0	527	418	
15	0	0	0	0	531	418	
0	0	0	0	0	523	418	
1	0	0	0	0	516	417	
2	0	0	0	0	513	418	
3	0	0	0	0	510	417	
4	0	0	0	0	510	418	
5	0	0	0	0	507	418	
6	0	0	0	0	507	417	
7	0	0	0	0	508	418	
8	0	0	0	0	507	417	
9	0	0	0	0	511	418	
10	0	0	0	0	520	418	
11	0	0	0	0	531	418	
12	0	0	0	0	542	417	
13	0	0	0	0	549	417	
14	0	0	0	0	555	418	
15	0	0	0	0	548	418	
0	0	0	0	0	536	418	
1	0	0	0	0	534	418	
2	0	0	0	0	531	418	
3	0	0	0	0	529	418	
4	0	0	0	0	527	417	
5	0	0	0	0	523	418	
6	0	0	0	0	518	417	
7	0	0	0	0	506	417	
8	0	0	0	0	498	417	
9	0	0	0	0	500	418	
10	0	0	0	0	508	418	
11	0	0	0	0	513	418	
12	0	0	0	0	517	418	
13	0	0	0	0	516	417	
14	0	0	0	0	514	418	
15	0	0	0	0	518	417	
0	0	0	0	0	522	418	
1	0	0	0	0	524	418	
2	0	0	0	0	527	417	
3	0	0	0	0	533	417	
4	0	0	0	0	536	418	
5	0	0	0	0	538	418	
6	0	0	0	0	536	417	
7	0	0	0	0	535	418	
8	0	0	0	0	535	417	
9	0	0	0	0	530	417	
10	0	0	0	0	525	418	
11	0	0	0	0	515	417	
12	0	0	0	0	510	417	
13	0	0	0	0	502	417	
14	0	0	0	0	500	417	
15	0	0	0	0	501	417	
0	0	0	0	0	507	417	
1	0	0	0	0	512	417	
2	0	0	0	0	512	417	
3	0	0	0	0	513	417	
4	0	0	0	0	514	417	
5	0	0	0	0	512	417	
6	0	0	0	0	522	417	
7	0	0	0	0	526	417	
8	0	0	0	0	528	417	
9	0	0	0	0	523	417	
10	0	0	0	0	520	417	
11	0	0	0	0	519	417	
12	0	0	0	0	514	417	
13	0	0	0	0	519	417	
14	0	0	0	0	524	417	
15	0	0	0	0	530	417	
0	0	0	0	0	537	417	
1	0	0	0	0	540	417	
2	0	0	0	0	537	417	
3	0	0	0	0	525	417	
4	0	0	0	0	516	417	
5	0	0	0	0	513	417	
6	0	0	0	0	513	417	
7	0	0	0	0	512	417	
8	0	0	0	0	514	417	
9	0	0	0	0	520	417	
10	0	0	0	0	519	417	
11	0	0	0	0	516	417	
12	0	0	0	0	510	417	
13	0	0	0	0	505	417	
14	0	0	0	0	501	417	
15	0	0	0	0	501	417	
0	0	0	0	0	502	417	
1	0	0	0	0	502	417	
2	0	0	0	0	504	417	
3	0	0	0	0	501	417	
4	0	0	0	0	500	417	
5	0	0	0	0	507	417	
6	0	0	0	0	516	417	
7	0	0	0	0	520	417	
8	0	0	0	0	528	417	
9	0	0	0	0	535	417	
10	0	0	0	0	539	417	
11	0	0	0	0	547	417	
12	0	0	0	0	547	417	
13	0	0	0	0	534	417	
14	0	0	0	0	527	417	
15	0	0	0	0	528	417	
0	0	0	0	0	524	417	
1	0	0	0	0	524	417	
2	0	0	0	0	519	417	
3	0	0	0	0	519	417	
4	0	0	0	0	527	417	
5	0	0	0	0	531	417	
6	0	0	0	0	525	417	
7	0	0	0	0	517	417	
8	0	0	0	0	516	417	
9	0	0	0	0	519	417	
10	0	0	0	0	521	417	
11	0	0	0	0	518	417	
12	0	0	0	0	518	417	
13	0	0	0	0	519	417	
14	0	0	0	0	513	417	
15	0	0	0	0	503	417	
0	0	0	0	0	496	417	
1	0	0	0	0	497	417	
2	0	0	0	0	504	417	
3	0	0	0	0	508	417	
4	0	0	0	0	513	417	
5	0	0	0	0	517	417	
6	0	0	0	0	517	417	
7	0	0	0	0	510	417	
8	0	0	0	0	503	417	
9	0	0	0	0	497	417	
10	0	0	0	0	498	417	
11	0	0	0	0	505	417	
12	0	0	0	0	521	417	
13	0	0	0	0	526	417	
14	0	0	0	0	517	417	
15	0	0	0	0	515	417	
0	0	0	0	0	519	417	
1	0	0	0	0	522	417	
2	0	0	0	0	515	417	
3	0	0	0	0	508	417	
4	0	0	0	0	503	417	
5	0	0	0	0	503	417	
6	0	0	0	0	505	417	
7	0	0	0	0	505	417	
8	0	0	0	0	507	417	
9	0	0	0	0	509	417	
10	0	0	0	0	509	417	
11	0	0	0	0	515	417	
12	0	0	0	0	524	417	
13	0	0	0	0	536	417	
14	0	0	0	0	541	417	
15	0	0	0	0	539	417	
0	0	0	0	0	536	417	
1	0	0	0	0	528	417	
2	0	0	0	0	520	417	
3	0	0	0	0	517	417	
4	0	0	0	0	515	417	
5	0	0	0	0	517	417	
6	0	0	0	0	515	417	
7	0	0	0	0	526	417	
8	0	0	0	0	535	417	
9	0	0	0	0	544	417	
10	0	0	0	0	553	417	
11	0	0	0	0	551	417	
12	0	0	0	0	547	417	
13	0	0	0	0	540	417	
14	0	0	0	0	537	417	
15	0	0	0	0	532	417	
0	0	0	0	0	525	417	
1	0	0	0	0	522	417	
2	0	0	0	0	519	417	
3	0	0	0	0	523	417	
4	0	0	0	0	522	417	
5	0	0	0	0	524	417	
6	0	0	0	0	524	417	
7	0	0	0	0	518	417	
8	0	0	0	0	513	417	
9	0	0	0	0	516	417	
10	0	0	0	0	523	417	
11	0	0	0	0	526	417	
12	0	0	0	0	533	417	
13	0	0	0	0	534	417	
14	0	0	0	0	538	417	
15	0	0	0	0	547	417	
0	0	0	0	0	549	417	
1	0	0	0	0	550	417	
2	0	0	0	0	557	417	
3	0	0	0	0	561	417	
4	0	0	0	0	560	417	
5	0	0	0	0	550	417	
6	0	0	0	0	547	417	
7	0	0	0	0	543	417	
8	0	0	0	0	540	417	
9	0	0	0	0	534	417	
10	0	0	0	0	530	418	
11	0	0	0	0	536	417	
12	0	0	0	0	547	417	
13	0	0	0	0	555	417	
14	0	0	0	0	556	417	
15	0	0	0	0	554	418	
0	0	0	0	0	551	417	
1	0	0	0	0	545	417	
2	0	0	0	0	535	417	
3	0	0	0	0	523	418	
4	0	0	0	0	514	418	
5	0	0	0	0	510	417	
6	0	0	0	0	509	417	
7	0	0	0	0	509	417	
8	0	0	0	0	507	418	
9	0	0	0	0	508	418	
10	0	0	0	0	506	417	
11	0	0	0	0	502	418	
12	0	0	0	0	500	417	
13	0	0	0	0	500	417	
14	0	0	0	0	499	418	
15	0	0	0	0	501	418	
0	0	0	0	0	505	418	
1	0	0	0	0	511	417	
2	0	0	0	0	508	418	
3	0	0	0	0	496	417	
4	0	0	0	0	487	418	
5	0	0	0	0	484	418	
6	0	0	0	0	484	418	
7	0	0	0	0	487	418	
8	0	0	0	0	494	418	
9	0	0	0	0	500	418	
10	0	0	0	0	509	418	
11	0	0	0	0	519	418	
12	0	0	0	0	527	418	
13	0	0	0	0	524	418	
14	0	0	0	0	524	418	
15	0	0	0	0	525	418	
0	0	0	0	0	526	418	
1	0	0	0	0	519	418	
2	0	0	0	0	509	418	
3	0	0	0	0	502	418	
4	0	0	0	0	495	418	
5	0	0	0	0	488	418	
6	0	0	0	0	480	418	
7	0	0	0	0	475	418	
8	0	0	0	0	485	418	
9	0	0	0	0	500	418	
10	0	0	0	0	509	418	
11	0	0	0	0	514	418	
12	0	0	0	0	521	418	
13	0	0	0	0	529	418	
14	0	0	0	0	532	418	
15	0	0	0	0	535	418	
0	0	0	0	0	533	418	
1	0	0	0	0	527	418	
2	0	0	0	0	520	418	
3	0	0	0	0	518	418	
4	0	0	0	0	517	418	
5	0	0	0	0	513	418	
6	0	0	0	0	504	418	
7	0	0	0	0	490	418	
8	0	0	0	0	480	418	
9	0	0	0	0	480	418	
10	0	0	0	0	482	418	
11	0	0	0	0	477	418	
12	0	0	0	0	474	418	
13	0	0	0	0	474	418	
14	0	0	0	0	482	418	
15	0	0	0	0	487	418	
0	0	0	0	0	486	418	
1	0	0	0	0	484	418	
2	0	0	0	0	487	418	
3	0	0	0	0	490	418	
4	0	0	0	0	496	418	
5	0	0	0	0	501	418	
6	0	0	0	0	499	418	
7	0	0	0	0	495	418	
8	0	0	0	0	493	418	
9	0	0	0	0	490	418	
10	0	0	0	0	488	418	
11	0	0	0	0	493	418	
12	0	0	0	0	497	418	
13	0	0	0	0	501	418	
14	0	0	0	0	504	418	
15	0	0	0	0	508	418	
0	0	0	0	0	512	418	
1	0	0	0	0	513	418	
2	0	0	0	0	508	418	
3	0	0	0	0	506	418	
4	0	0	0	0	514	418	
5	0	0	0	0	525	418	
6	0	0	0	0	530	418	
7	0	0	0	0	525	418	
8	0	0	0	0	523	418	
9	0	0	0	0	529	418	
10	0	0	0	0	532	418	
11	0	0	0	0	529	418	
12	0	0	0	0	530	418	
13	0	0	0	0	524	418	
14	0	0	0	0	517	418	
15	0	0	0	0	521	418	
0	0	0	0	0	529	418	
1	0	0	0	0	536	418	
2	0	0	0	0	543	418	
3	0	0	0	0	547	418	
4	0	0	0	0	554	418	
5	0	0	0	0	568	419	
6	0	0	0	0	572	418	
7	0	0	0	0	584	418	
8	0	0	0	0	605	419	
9	0	0	0	0	628	418	
10	0	0	0	0	651	419	
11	0	0	0	0	676	419	
12	0	0	0	0	694	419	
13	0	0	0	0	706	419	
14	0	0	0	0	710	419	
15	0	0	0	0	718	419	
0	0	0	0	0	733	419	
1	0	0	0	0	747	419	
2	0	0	0	0	751	419	
3	0	0	0	0	746	419	
4	0	0	0	0	739	419	
5	0	0	0	0	739	419	
6	0	0	0	0	741	419	
7	0	0	0	0	746	419	
8	0	0	0	0	749	419	
9	0	0	0	0	751	419	
10	0	0	0	0	746	419	
11	0	0	0	0	740	419	
12	0	0	0	0	737	419	
13	0	0	0	0	729	419	
14	0	0	0	0	716	419	
15	0	0	0	0	707	419	
0	0	0	0	0	697	419	
1	0	0	0	0	683	419	
2	0	0	0	0	665	419	
3	0	0	0	0	644	419	
4	0	0	0	0	625	419	
5	0	0	0	0	616	419	
6	0	0	0	0	612	419	
7	0	0	0	0	609	419	
8	0	0	0	0	601	419	
9	0	0	0	0	590	419	
10	0	0	0	0	576	419	
11	0	0	0	0	559	419	
12	0	0	0	0	540	419	
13	0	0	0	0	521	419	
14	0	0	0	0	512	419	
15	0	0	0	0	498	419	
0	0	0	0	0	483	419	
1	0	0	0	0	470	419	
2	0	0	0	0	457	419	
3	0	0	0	0	449	419	
4	0	0	0	0	445	419	
5	0	0	0	0	446	419	
6	0	0	0	0	454	420	
7	0	0	0	0	456	419	
8	0	0	0	0	454	419	
9	0	0	0	0	454	420	
10	0	0	0	0	455	420	
11	0	0	0	0	452	420	
12	0	0	0	0	453	420	
13	0	0	0	0	451	420	
14	0	0	0	0	446	420	
15	0	0	0	0	443	420	
0	0	0	0	0	439	420	
1	0	0	0	0	435	420	
2	0	0	0	0	431	420	
3	0	0	0	0	431	420	
4	0	0	0	0	430	420	
5	0	0	0	0	431	420	
6	0	0	0	0	436	420	
7	0	0	0	0	436	420	
8	0	0	0	0	425	420	
9	0	0	0	0	418	420	
10	0	0	0	0	415	420	
11	0	0	0	0	426	420	
12	0	0	0	0	435	420	
13	0	0	0	0	438	420	
14	0	0	0	0	441	420	
15	0	0	0	0	444	420	
0	0	0	0	0	446	420	
1	0	0	0	0	440	420	
2	0	0	0	0	432	420	
3	0	0	0	0	437	420	
4	0	0	0	0	443	420	
5	0	0	0	0	438	420	
6	0	0	0	0	440	420	
7	0	0	0	0	449	420	
8	0	0	0	0	455	420	
9	0	0	0	0	453	421	
10	0	0	0	0	445	420	
11	0	0	0	0	436	421	
12	0	0	0	0	436	420	
13	0	0	0	0	442	420	
14	0	0	0	0	446	421	
15	0	0	0	0	447	420	
0	0	0	0	0	449	421	
1	0	0	0	0	447	421	
2	0	0	0	0	442	421	
3	0	0	0	0	441	421	
4	0	0	0	0	439	421	
5	0	0	0	0	434	421	
6	0	0	0	0	431	421	
7	0	0	0	0	436	421	
8	0	0	0	0	446	421	
9	0	0	0	0	456	421	
10	0	0	0	0	460	421	
11	0	0	0	0	462	421	
12	0	0	0	0	460	421	
13	0	0	0	0	458	421	
14	0	0	0	0	460	421	
15	0	0	0	0	463	421	
0	0	0	0	0	461	421	
1	0	0	0	0	455	421	
2	0	0	0	0	452	421	
3	0	0	0	0	455	421	
4	0	0	0	0	461	421	
5	0	0	0	0	463	421	
6	0	0	0	0	470	421	
7	0	0	0	0	475	421	
8	0	0	0	0	470	421	
9	0	0	0	0	465	421	
10	0	0	0	0	459	421	
11	0	0	0	0	455	422	
12	0	0	0	0	451	422	
13	0	0	0	0	453	422	
14	0	0	0	0	451	422	
15	0	0	0	0	446	422	
0	0	0	0	0	439	422	
1	0	0	0	0	449	422	
2	0	0	0	0	466	422	
3	0	0	0	0	473	422	
4	0	0	0	0	483	422	
5	0	0	0	0	491	422	
6	0	0	0	0	492	422	
7	0	0	0	0	496	422	
8	0	0	0	0	498	422	
9	0	0	0	0	487	422	
10	0	0	0	0	474	422	
11	0	0	0	0	470	422	
12	0	0	0	0	463	422	
13	0	0	0	0	458	422	
14	0	0	0	0	462	422	
15	0	0	0	0	467	422	
0	0	0	0	0	468	422	
1	0	0	0	0	466	422	
2	0	0	0	0	472	422	
3	0	0	0	0	470	422	
4	0	0	0	0	460	422	
5	0	0	0	0	455	422	
6	0	0	0	0	451	422	
7	0	0	0	0	458	422	
8	0	0	0	0	465	422	
9	0	0	0	0	466	422	
10	0	0	0	0	468	422	
11	0	0	0	0	475	422	
12	0	0	0	0	484	422	
13	0	0	0	0	491	422	
14	0	0	0	0	498	423	
15	0	0	0	0	500	422	
0	0	0	0	0	499	422	
1	0	0	0	0	500	422	
2	0	0	0	0	500	422	
3	0	0	0	0	501	423	
4	0	0	0	0	497	422	
5	0	0	0	0	492	422	
6	0	0	0	0	480	422	
7	0	0	0	0	476	422	
8	0	0	0	0	480	422	
9	0	0	0	0	482	423	
10	0	0	0	0	484	423	
11	0	0	0	0	490	422	
12	0	0	0	0	488	423	
13	0	0	0	0	483	423	
14	0	0	0	0	478	422	
15	0	0	0	0	492	423	
0	0	0	0	0	500	423	
1	0	0	0	0	499	423	
2	0	0	0	0	504	423	
3	0	0	0	0	506	423	
4	0	0	0	0	502	423	
5	0	0	0	0	494	423	
6	0	0	0	0	487	423	
7	0	0	0	0	487	423	
8	0	0	0	0	487	423	
9	0	0	0	0	491	423	
10	0	0	0	0	497	423	
11	0	0	0	0	505	423	
12	0	0	0	0	511	422	
13	0	0	0	0	517	423	
14	0	0	0	0	521	423	
15	0	0	0	0	526	423	
0	0	0	0	0	524	423	
1	0	0	0	0	521	423	
2	0	0	0	0	519	423	
3	0	0	0	0	510	423	
4	0	0	0	0	505	423	
5	0	0	0	0	498	423	
6	0	0	0	0	490	423	
7	0	0	0	0	492	423	
8	0	0	0	0	498	423	
9	0	0	0	0	508	423	
10	0	0	0	0	515	423	
11	0	0	0	0	523	423	
12	0	0	0	0	527	423	
13	0	0	0	0	526	423	
14	0	0	0	0	532	423	
15	0	0	0	0	531	423	
0	0	0	0	0	519	423	
1	0	0	0	0	508	423	
2	0	0	0	0	504	423	
3	0	0	0	0	503	423	
4	0	0	0	0	500	423	
5	0	0	0	0	506	423	
6	0	0	0	0	512	423	
7	0	0	0	0	518	423	
8	0	0	0	0	524	423	
9	0	0	0	0	531	423	
10	0	0	0	0	534	423	
11	0	0	0	0	543	423	
12	0	0	0	0	553	423	
13	0	0	0	0	557	423	
14	0	0	0	0	548	423	
15	0	0	0	0	540	423	
0	0	0	0	0	536	423	
1	0	0	0	0	535	423	
2	0	0	0	0	533	423	
3	0	0	0	0	537	423	
4	0	0	0	0	543	423	
5	0	0	0	0	545	423	
6	0	0	0	0	544	423	
7	0	0	0	0	544	423	
8	0	0	0	0	541	423	
9	0	0	0	0	540	423	
10	0	0	0	0	544	424	
11	0	0	0	0	547	423	
12	0	0	0	0	551	423	
13	0	0	0	0	552	423	
14	0	0	0	0	565	424	
15	0	0	0	0	568	424	
0	0	0	0	0	558	423	
1	0	0	0	0	539	424	
2	0	0	0	0	522	423	
3	0	0	0	0	514	424	
4	0	0	0	0	509	423	
5	0	0	0	0	515	423	
6	0	0	0	0	529	424	
7	0	0	0	0	541	424	
8	0	0	0	0	547	424	
9	0	0	0	0	551	424	
10	0	0	0	0	553	424	
11	0	0	0	0	550	424	
12	0	0	0	0	537	424	
13	0	0	0	0	527	424	
14	0	0	0	0	523	424	
15	0	0	0	0	526	424	
0	0	0	0	0	529	424	
1	0	0	0	0	533	424	
2	0	0	0	0	530	424	
3	0	0	0	0	524	424	
4	0	0	0	0	529	424	
5	0	0	0	0	538	424	
6	0	0	0	0	544	424	
7	0	0	0	0	544	424	
8	0	0	0	0	540	424	
9	0	0	0	0	540	424	
10	0	0	0	0	536	424	
11	0	0	0	0	532	424	
12	0	0	0	0	524	424	
13	0	0	0	0	515	424	
14	0	0	0	0	526	424	
15	0	0	0	0	529	424	
0	0	0	0	0	527	424	
1	0	0	0	0	527	424	
2	0	0	0	0	529	424	
3	0	0	0	0	537	424	
4	0	0	0	0	544	424	
5	0	0	0	0	546	424	
6	0	0	0	0	543	424	
7	0	0	0	0	540	424	
8	0	0	0	0	540	424	
9	0	0	0	0	539	424	
10	0	0	0	0	531	424	
11	0	0	0	0	523	424	
12	0	0	0	0	520	424	
13	0	0	0	0	514	424	
14	0	0	0	0	508	424	
15	0	0	0	0	507	424	
0	0	0	0	0	514	424	
1	0	0	0	0	522	424	
2	0	0	0	0	531	424	
3	0	0	0	0	539	425	
4	0	0	0	0	543	424	
5	0	0	0	0	542	424	
6	0	0	0	0	536	424	
7	0	0	0	0	531	424	
8	0	0	0	0	527	424	
9	0	0	0	0	518	424	
10	0	0	0	0	509	425	
11	0	0	0	0	499	424	
12	0	0	0	0	492	425	
13	0	0	0	0	491	425	
14	0	0	0	0	496	425	
15	0	0	0	0	502	425	
0	0	0	0	0	506	425	
1	0	0	0	0	507	424	
2	0	0	0	0	507	425	
3	0	0	0	0	502	425	
4	0	0	0	0	499	425	
5	0	0	0	0	494	425	
6	0	0	0	0	485	425	
7	0	0	0	0	480	424	
8	0	0	0	0	478	425	
9	0	0	0	0	475	425	
10	0	0	0	0	475	425	
11	0	0	0	0	476	425	
12	0	0	0	0	480	425	
13	0	0	0	0	486	425	
14	0	0	0	0	493	425	
15	0	0	0	0	502	425	
0	0	0	0	0	501	425	
1	0	0	0	0	495	425	
2	0	0	0	0	485	425	
3	0	0	0	0	473	425	
4	0	0	0	0	463	425	
5	0	0	0	0	459	425	
6	0	0	0	0	460	425	
7	0	0	0	0	466	425	
8	0	0	0	0	469	425	
9	0	0	0	0	465	425	
10	0	0	0	0	467	425	
11	0	0	0	0	474	425	
12	0	0	0	0	480	425	
13	0	0	0	0	483	425	
14	0	0	0	0	484	425	
15	0	0	0	0	486	425	
0	0	0	0	0	491	425	
1	0	0	0	0	497	425	
2	0	0	0	0	497	425	
3	0	0	0	0	494	425	
4	0	0	0	0	489	425	
5	0	0	0	0	484	425	
6	0	0	0	0	479	425	
7	0	0	0	0	473	425	
8	0	0	0	0	472	425	
9	0	0	0	0	473	425	
10	0	0	0	0	478	425	
11	0	0	0	0	477	425	
12	0	0	0	0	475	425	
13	0	0	0	0	474	425	
14	0	0	0	0	478	425	
15	0	0	0	0	479	425	
0	0	0	0	0	480	426	
1	0	0	0	0	487	425	
2	0	0	0	0	495	425	
3	0	0	0	0	502	425	
4	0	0	0	0	503	425	
5	0	0	0	0	497	425	
6	0	0	0	0	484	425	
7	0	0	0	0	481	425	
8	0	0	0	0	480	425	
9	0	0	0	0	480	425	
10	0	0	0	0	485	425	
11	0	0	0	0	487	426	
12	0	0	0	0	487	425	
13	0	0	0	0	484	425	
14	0	0	0	0	485	425	
15	0	0	0	0	483	426	
0	0	0	0	0	488	426	
1	0	0	0	0	487	426	
2	0	0	0	0	484	426	
3	0	0	0	0	486	426	
4	0	0	0	0	495	426	
5	0	0	0	0	496	426	
6	0	0	0	0	494	426	
7	0	0	0	0	491	426	
8	0	0	0	0	489	426	
9	0	0	0	0	487	426	
10	0	0	0	0	480	426	
11	0	0	0	0	478	426	
12	0	0	0	0	482	426	
13	0	0	0	0	489	426	
14	0	0	0	0	490	426	
15	0	0	0	0	496	426	
0	0	0	0	0	497	426	
1	0	0	0	0	492	426	
2	0	0	0	0	486	426	
3	0	0	0	0	484	426	
4	0	0	0	0	486	426	
5	0	0	0	0	488	426	
6	0	0	0	0	490	426	
7	0	0	0	0	488	426	
8	0	0	0	0	485	427	
9	0	0	0	0	482	426	
10	0	0	0	0	483	426	
11	0	0	0	0	485	426	
12	0	0	0	0	483	426	
13	0	0	0	0	483	426	
14	0	0	0	0	482	427	
15	0	0	0	0	479	427	
0	0	0	0	0	480	427	
1	0	0	0	0	480	426	
2	0	0	0	0	484	427	
3	0	0	0	0	488	427	
4	0	0	0	0	495	427	
5	0	0	0	0	493	427	
6	0	0	0	0	489	427	
7	0	0	0	0	483	427	
8	0	0	0	0	488	427	
9	0	0	0	0	498	427	
10	0	0	0	0	504	427	
11	0	0	0	0	504	427	
12	0	0	0	0	501	427	
13	0	0	0	0	505	427	
14	0	0	0	0	503	427	
15	0	0	0	0	497	427	
0	0	0	0	0	501	427	
1	0	0	0	0	500	427	
2	0	0	0	0	498	427	
3	0	0	0	0	500	427	
4	0	0	0	0	504	427	
5	0	0	0	0	504	427	
6	0	0	0	0	508	427	
7	0	0	0	0	513	427	
8	0	0	0	0	512	427	
9	0	0	0	0	505	427	
10	0	0	0	0	504	427	
11	0	0	0	0	508	427	
12	0	0	0	0	512	427	
13	0	0	0	0	510	427	
14	0	0	0	0	507	427	
15	0	0	0	0	513	427	
0	0	0	0	0	512	427	
1	0	0	0	0	508	427	
2	0	0	0	0	501	427	
3	0	0	0	0	503	427	
4	0	0	0	0	503	427	
5	0	0	0	0	501	427	
6	0	0	0	0	510	427	
7	0	0	0	0	519	427	
8	0	0	0	0	525	427	
9	0	0	0	0	527	427	
10	0	0	0	0	529	427	
11	0	0	0	0	529	428	
12	0	0	0	0	519	427	
13	0	0	0	0	517	428	
14	0	0	0	0	521	428	
15	0	0	0	0	518	427	
0	0	0	0	0	519	428	
1	0	0	0	0	522	428	
2	0	0	0	0	523	428	
3	0	0	0	0	523	428	
4	0	0	0	0	524	428	
5	0	0	0	0	526	428	
6	0	0	0	0	527	428	
7	0	0	0	0	524	428	
8	0	0	0	0	520	428	
9	0	0	0	0	519	428	
10	0	0	0	0	518	428	
11	0	0	0	0	521	428	
12	0	0	0	0	521	428	
13	0	0	0	0	524	428	
14	0	0	0	0	524	428	
15	0	0	0	0	519	428	
0	0	0	0	0	514	428	
1	0	0	0	0	507	428	
2	0	0	0	0	501	428	
3	0	0	0	0	492	428	
4	0	0	0	0	491	428	
5	0	0	0	0	492	428	
6	0	0	0	0	493	428	
7	0	0	0	0	499	428	
8	0	0	0	0	501	428	
9	0	0	0	0	502	428	
10	0	0	0	0	504	428	
11	0	0	0	0	503	428	
12	0	0	0	0	504	428	
13	0	0	0	0	500	428	
14	0	0	0	0	500	428	
15	0	0	0	0	508	428	
0	0	0	0	0	511	428	
1	0	0	0	0	515	428	
2	0	0	0	0	519	428	
3	0	0	0	0	523	428	
4	0	0	0	0	528	428	
5	0	0	0	0	531	428	
6	0	0	0	0	538	428	
7	0	0	0	0	542	428	
8	0	0	0	0	540	428	
9	0	0	0	0	540	428	
10	0	0	0	0	540	428	
11	0	0	0	0	536	428	
12	0	0	0	0	529	428	
13	0	0	0	0	519	428	
14	0	0	0	0	516	428	
15	0	0	0	0	511	428	
0	0	0	0	0	507	428	
1	0	0	0	0	512	428	
2	0	0	0	0	514	428	
3	0	0	0	0	515	428	
4	0	0	0	0	514	428	
5	0	0	0	0	512	428	
6	0	0	0	0	506	428	
7	0	0	0	0	498	428	
8	0	0	0	0	497	428	
9	0	0	0	0	497	428	
10	0	0	0	0	500	428	
11	0	0	0	0	510	428	
12	0	0	0	0	521	428	
13	0	0	0	0	524	428	
14	0	0	0	0	530	428	
15	0	0	0	0	535	428	
0	0	0	0	0	541	428	
1	0	0	0	0	537	428	
2	0	0	0	0	533	428	
3	0	0	0	0	539	428	
4	0	0	0	0	530	428	
5	0	0	0	0	528	428	
6	0	0	0	0	527	429	
7	0	0	0	0	520	428	
8	0	0	0	0	520	428	
9	0	0	0	0	522	428	
10	0	0	0	0	519	428	
11	0	0	0	0	514	428	
12	0	0	0	0	514	429	
13	0	0	0	0	512	428	
14	0	0	0	0	505	429	
15	0	0	0	0	507	428	
0	0	0	0	0	509	429	
1	0	0	0	0	504	429	
2	0	0	0	0	499	428	
3	0	0	0	0	497	428	
4	0	0	0	0	504	428	
5	0	0	0	0	524	429	
6	0	0	0	0	537	428	
7	0	0	0	0	539	429	
8	0	0	0	0	537	429	
9	0	0	0	0	531	429	
10	0	0	0	0	526	429	
11	0	0	0	0	518	428	
12	0	0	0	0	503	428	
13	0	0	0	0	488	428	
14	0	0	0	0	482	428	
15	0	0	0	0	492	429	
0	0	0	0	0	496	429	
1	0	0	0	0	504	429	
2	0	0	0	0	512	428	
3	0	0	0	0	521	429	
4	0	0	0	0	534	429	
5	0	0	0	0	544	429	
6	0	0	0	0	549	429	
7	0	0	0	0	544	429	
8	0	0	0	0	544	429	
9	0	0	0	0	536	429	
10	0	0	0	0	520	429	
11	0	0	0	0	512	429	
12	0	0	0	0	513	429	
13	0	0	0	0	509	429	
14	0	0	0	0	505	429	
15	0	0	0	0	498	429	
0	0	0	0	0	495	429	
1	0	0	0	0	496	429	
2	0	0	0	0	499	429	
3	0	0	0	0	499	429	
4	0	0	0	0	503	429	
5	0	0	0	0	501	429	
6	0	0	0	0	499	428	
7	0	0	0	0	508	429	
8	0	0	0	0	515	429	
9	0	0	0	0	519	429	
10	0	0	0	0	522	429	
11	0	0	0	0	533	428	
12	0	0	0	0	541	429	
13	0	0	0	0	542	429	
14	0	0	0	0	544	429	
15	0	0	0	0	543	429	
0	0	0	0	0	538	429	
1	0	0	0	0	531	429	
2	0	0	0	0	526	429	
3	0	0	0	0	521	429	
4	0	0	0	0	520	429	
5	0	0	0	0	524	429	
6	0	0	0	0	529	429	
7	0	0	0	0	522	429	
8	0	0	0	0	516	429	
9	0	0	0	0	514	428	
10	0	0	0	0	510	429	
11	0	0	0	0	505	429	
12	0	0	0	0	504	429	
13	0	0	0	0	511	429	
14	0	0	0	0	519	429	
15	0	0	0	0	530	429	
0	0	0	0	0	536	429	
1	0	0	0	0	539	429	
2	0	0	0	0	537	428	
3	0	0	0	0	540	429	
4	0	0	0	0	541	429	
5	0	0	0	0	536	429	
6	0	0	0	0	534	429	
7	0	0	0	0	531	429	
8	0	0	0	0	525	429	
9	0	0	0	0	517	429	
10	0	0	0	0	506	429	
11	0	0	0	0	499	429	
12	0	0	0	0	505	429	
13	0	0	0	0	513	429	
14	0	0	0	0	523	428	
15	0	0	0	0	528	429	
0	0	0	0	0	532	429	
1	0	0	0	0	532	429	
2	0	0	0	0	529	428	
3	0	0	0	0	522	428	
4	0	0	0	0	518	429	
5	0	0	0	0	523	429	
6	0	0	0	0	531	429	
7	0	0	0	0	533	429	
8	0	0	0	0	533	429	
9	0	0	0	0	538	429	
10	0	0	0	0	543	428	
11	0	0	0	0	544	429	
12	0	0	0	0	543	429	
13	0	0	0	0	534	429	
14	0	0	0	0	522	429	
15	0	0	0	0	512	428	
0	0	0	0	0	504	429	
1	0	0	0	0	495	429	
2	0	0	0	0	487	428	
3	0	0	0	0	487	428	
4	0	0	0	0	494	429	
5	0	0	0	0	500	429	
6	0	0	0	0	512	429	
7	0	0	0	0	528	429	
8	0	0	0	0	537	428	
9	0	0	0	0	535	429	
10	0	0	0	0	524	428	
11	0	0	0	0	515	428	
12	0	0	0	0	514	428	
13	0	0	0	0	520	428	
14	0	0	0	0	527	429	
15	0	0	0	0	545	429	
0	0	0	0	0	564	429	
1	0	0	0	0	574	429	
2	0	0	0	0	575	429	
3	0	0	0	0	574	429	
4	0	0	0	0	566	428	
5	0	0	0	0	555	428	
6	0	0	0	0	537	428	
7	0	0	0	0	520	429	
8	0	0	0	0	509	429	
9	0	0	0	0	495	428	
10	0	0	0	0	497	428	
11	0	0	0	0	504	428	
12	0	0	0	0	506	428	
13	0	0	0	0	515	428	
14	0	0	0	0	519	428	
15	0	0	0	0	511	428	
0	0	0	0	0	507	428	
1	0	0	0	0	510	429	
2	0	0	0	0	501	429	
3	0	0	0	0	499	428	
4	0	0	0	0	500	428	
5	0	0	0	0	499	428	
6	0	0	0	0	498	429	
7	0	0	0	0	506	428	
8	0	0	0	0	516	428	
9	0	0	0	0	529	428	
10	0	0	0	0	537	428	
11	0	0	0	0	538	428	
12	0	0	0	0	536	428	
13	0	0	0	0	540	428	
14	0	0	0	0	549	428	
15	0	0	0	0	543	428	
0	0	0	0	0	535	429	
1	0	0	0	0	528	428	
2	0	0	0	0	524	428	
3	0	0	0	0	524	428	
4	0	0	0	0	525	428	
5	0	0	0	0	528	428	
6	0	0	0	0	535	428	
7	0	0	0	0	538	428	
8	0	0	0	0	531	428	
9	0	0	0	0	520	428	
10	0	0	0	0	513	428	
11	0	0	0	0	514	428	
12	0	0	0	0	512	428	
13	0	0	0	0	504	428	
14	0	0	0	0	504	428	
15	0	0	0	0	504	428	
0	0	0	0	0	504	428	
1	0	0	0	0	510	428	
2	0	0	0	0	519	428	
3	0	0	0	0	526	428	
4	0	0	0	0	529	428	
5	0	0	0	0	535	428	
6	0	0	0	0	537	428	
7	0	0	0	0	534	428	
8	0	0	0	0	529	428	
9	0	0	0	0	522	428	
10	0	0	0	0	512	428	
11	0	0	0	0	502	428	
12	0	0	0	0	490	428	
13	0	0	0	0	488	428	
14	0	0	0	0	492	428	
15	0	0	0	0	495	428	
0	0	0	0	0	498	428	
1	0	0	0	0	495	428	
2	0	0	0	0	492	428	
3	0	0	0	0	501	428	
4	0	0	0	0	519	428	
5	0	0	0	0	523	428	
6	0	0	0	0	523	428	
7	0	0	0	0	531	428	
8	0	0	0	0	541	428	
9	0	0	0	0	539	428	
10	0	0	0	0	534	428	
11	0	0	0	0	532	428	
12	0	0	0	0	535	428	
13	0	0	0	0	537	428	
14	0	0	0	0	535	428	
15	0	0	0	0	537	428	
0	0	0	0	0	540	428	
1	0	0	0	0	539	428	
2	0	0	0	0	535	428	
3	0	0	0	0	533	428	
4	0	0	0	0	536	428	
5	0	0	0	0	523	428	
6	0	0	0	0	512	428	
7	0	0	0	0	507	428	
8	0	0	0	0	511	428	
9	0	0	0	0	515	428	
10	0	0	0	0	513	428	
11	0	0	0	0	505	428	
12	0	0	0	0	511	428	
13	0	0	0	0	518	428	
14	0	0	0	0	523	428	
15	0	0	0	0	528	428	
0	0	0	0	0	536	428	
1	0	0	0	0	543	428	
2	0	0	0	0	546	428	
3	0	0	0	0	546	428	
4	0	0	0	0	546	428	
5	0	0	0	0	542	428	
6	0	0	0	0	533	428	
7	0	0	0	0	531	428	
8	0	0	0	0	537	428	
9	0	0	0	0	544	428	
10	0	0	0	0	542	428	
11	0	0	0	0	543	428	
12	0	0	0	0	542	428	
13	0	0	0	0	536	428	
14	0	0	0	0	527	428	
15	0	0	0	0	521	428	
0	0	0	0	0	528	428	
1	0	0	0	0	543	428	
2	0	0	0	0	556	428	
3	0	0	0	0	562	428	
4	0	0	0	0	569	428	
5	0	0	0	0	572	428	
6	0	0	0	0	571	428	
7	0	0	0	0	564	428	
8	0	0	0	0	558	428	
9	0	0	0	0	561	428	
10	0	0	0	0	564	428	
11	0	0	0	0	561	428	
12	0	0	0	0	554	428	
13	0	0	0	0	549	428	
14	0	0	0	0	539	428	
15	0	0	0	0	522	428	
0	0	0	0	0	516	428	
1	0	0	0	0	519	428	
2	0	0	0	0	525	428	
3	0	0	0	0	528	428	
4	0	0	0	0	531	428	
5	0	0	0	0	533	428	
6	0	0	0	0	533	428	
7	0	0	0	0	535	428	
8	0	0	0	0	545	427	
9	0	0	0	0	550	428	
10	0	0	0	0	542	427	
11	0	0	0	0	536	428	
12	0	0	0	0	534	428	
13	0	0	0	0	526	427	
14	0	0	0	0	513	427	
15	0	0	0	0	507	427	
0	0	0	0	0	506	427	
1	0	0	0	0	510	427	
2	0	0	0	0	509	427	
3	0	0	0	0	503	427	
4	0	0	0	0	496	427	
5	0	0	0	0	496	427	
6	0	0	0	0	507	427	
7	0	0	0	0	524	427	
8	0	0	0	0	528	427	
9	0	0	0	0	519	427	
10	0	0	0	0	508	427	
11	0	0	0	0	499	427	
12	0	0	0	0	493	427	
13	0	0	0	0	492	427	
14	0	0	0	0	486	427	
15	0	0	0	0	479	427	
0	0	0	0	0	476	427	
1	0	0	0	0	475	427	
2	0	0	0	0	481	427	
3	0	0	0	0	487	427	
4	0	0	0	0	487	427	
5	0	0	0	0	496	427	
6	0	0	0	0	507	427	
7	0	0	0	0	509	427	
8	0	0	0	0	508	427	
9	0	0	0	0	507	427	
10	0	0	0	0	503	427	
11	0	0	0	0	508	427	
12	0	0	0	0	512	427	
13	0	0	0	0	524	427	
14	0	0	0	0	533	427	
15	0	0	0	0	539	427	
0	0	0	0	0	539	427	
1	0	0	0	0	533	427	
2	0	0	0	0	525	427	
3	0	0	0	0	519	427	
4	0	0	0	0	507	427	
5	0	0	0	0	491	427	
6	0	0	0	0	490	427	
7	0	0	0	0	494	427	
8	0	0	0	0	496	427	
9	0	0	0	0	500	427	
10	0	0	0	0	505	427	
11	0	0	0	0	508	427	
12	0	0	0	0	509	427	
13	0	0	0	0	510	427	
14	0	0	0	0	507	427	
15	0	0	0	0	505	427	
0	0	0	0	0	498	427	
1	0	0	0	0	491	427	
2	0	0	0	0	489	427	
3	0	0	0	0	491	427	
4	0	0	0	0	495	427	
5	0	0	0	0	499	427	
6	0	0	0	0	495	427	
7	0	0	0	0	495	427	
8	0	0	0	0	500	427	
9	0	0	0	0	503	427	
10	0	0	0	0	498	427	
11	0	0	0	0	495	427	
12	0	0	0	0	500	427	
13	0	0	0	0	501	427	
14	0	0	0	0	507	427	
15	0	0	0	0	510	427	
0	0	0	0	0	511	427	
1	0	0	0	0	523	427	
2	0	0	0	0	529	427	
3	0	0	0	0	529	427	
4	0	0	0	0	521	427	
5	0	0	0	0	514	427	
6	0	0	0	0	515	426	
7	0	0	0	0	516	427	
8	0	0	0	0	510	427	
9	0	0	0	0	513	427	
10	0	0	0	0	524	427	
11	0	0	0	0	534	427	
12	0	0	0	0	537	427	
13	0	0	0	0	533	427	
14	0	0	0	0	527	427	
15	0	0	0	0	519	427	
0	0	0	0	0	518	426	
1	0	0	0	0	515	426	
2	0	0	0	0	514	426	
3	0	0	0	0	508	427	
4	0	0	0	0	496	426	
5	0	0	0	0	502	427	
6	0	0	0	0	512	426	
7	0	0	0	0	521	427	
8	0	0	0	0	528	426	
9	0	0	0	0	529	427	
10	0	0	0	0	537	426	
11	0	0	0	0	552	426	
12	0	0	0	0	564	427	
13	0	0	0	0	576	426	
14	0	0	0	0	582	427	
15	0	0	0	0	588	427	
0	0	0	0	0	603	426	
1	0	0	0	0	626	427	
2	0	0	0	0	649	426	
3	0	0	0	0	669	427	
4	0	0	0	0	685	426	
5	0	0	0	0	704	427	
6	0	0	0	0	719	427	
7	0	0	0	0	731	427	
8	0	0	0	0	740	427	
9	0	0	0	0	758	427	
10	0	0	0	0	779	427	
11	0	0	0	0	792	427	
12	0	0	0	0	803	427	
13	0	0	0	0	806	427	
14	0	0	0	0	803	427	
15	0	0	0	0	797	427	
0	0	0	0	0	796	426	
1	0	0	0	0	791	426	
2	0	0	0	0	774	427	
3	0	0	0	0	764	427	
4	0	0	0	0	761	426	
5	0	0	0	0	764	426	
6	0	0	0	0	761	427	
7	0	0	0	0	744	426	
8	0	0	0	0	725	426	
9	0	0	0	0	707	426	
10	0	0	0	0	692	426	
11	0	0	0	0	672	427	
12	0	0	0	0	647	427	
13	0	0	0	0	621	426	
14	0	0	0	0	608	426	
15	0	0	0	0	591	426	
0	0	0	0	0	572	426	
1	0	0	0	0	559	426	
2	0	0	0	0	550	426	
3	0	0	0	0	539	426	
4	0	0	0	0	529	426	
5	0	0	0	0	525	426	
6	0	0	0	0	516	426	
7	0	0	0	0	508	426	
8	0	0	0	0	499	425	
9	0	0	0	0	497	426	
10	0	0	0	0	486	426	
11	0	0	0	0	470	426	
12	0	0	0	0	465	426	
13	0	0	0	0	460	425	
14	0	0	0	0	447	425	
15	0	0	0	0	436	425	
0	0	0	0	0	430	425	
1	0	0	0	0	429	425	
2	0	0	0	0	431	425	
3	0	0	0	0	439	425	
4	0	0	0	0	444	425	
5	0	0	0	0	441	425	
6	0	0	0	0	437	425	
7	0	0	0	0	431	425	
8	0	0	0	0	424	425	
9	0	0	0	0	414	425	
10	0	0	0	0	414	425	
11	0	0	0	0	426	425	
12	0	0	0	0	434	425	
13	0	0	0	0	438	425	
14	0	0	0	0	442	425	
15	0	0	0	0	443	425	
0	0	0	0	0	440	425	
1	0	0	0	0	441	425	
2	0	0	0	0	438	425	
3	0	0	0	0	438	425	
4	0	0	0	0	440	425	
5	0	0	0	0	442	425	
6	0	0	0	0	437	425	
7	0	0	0	0	436	424	
8	0	0	0	0	439	425	
9	0	0	0	0	443	424	
10	0	0	0	0	449	424	
11	0	0	0	0	448	424	
12	0	0	0	0	456	424	
13	0	0	0	0	463	424	
14	0	0	0	0	467	425	
15	0	0	0	0	470	424	
0	0	0	0	0	468	424	
1	0	0	0	0	463	424	
2	0	0	0	0	455	424	
3	0	0	0	0	451	424	
4	0	0	0	0	445	424	
5	0	0	0	0	442	424	
6	0	0	0	0	434	424	
7	0	0	0	0	428	424	
8	0	0	0	0	423	424	
9	0	0	0	0	418	424	
10	0	0	0	0	415	424	
11	0	0	0	0	420	424	
12	0	0	0	0	427	424	
13	0	0	0	0	428	424	
14	0	0	0	0	430	424	
15	0	0	0	0	431	424	
0	0	0	0	0	437	424	
1	0	0	0	0	453	424	
2	0	0	0	0	462	424	
3	0	0	0	0	466	424	
4	0	0	0	0	467	424	
5	0	0	0	0	465	424	
6	0	0	0	0	469	424	
7	0	0	0	0	472	424	
8	0	0	0	0	473	424	
9	0	0	0	0	473	424	
10	0	0	0	0	473	424	
11	0	0	0	0	468	424	
12	0	0	0	0	465	424	
13	0	0	0	0	468	424	
14	0	0	0	0	470	424	
15	0	0	0	0	466	424	
0	0	0	0	0	465	424	
1	0	0	0	0	460	424	
2	0	0	0	0	455	424	
3	0	0	0	0	459	424	
4	0	0	0	0	465	424	
5	0	0	0	0	469	424	
6	0	0	0	0	463	424	
7	0	0	0	0	458	424	
8	0	0	0	0	460	424	
9	0	0	0	0	457	424	
10	0	0	0	0	453	424	
11	0	0	0	0	454	424	
12	0	0	0	0	464	424	
13	0	0	0	0	472	423	
14	0	0	0	0	476	424	
15	0	0	0	0	479	424	
0	0	0	0	0	482	424	
1	0	0	0	0	488	423	
2	0	0	0	0	490	424	
3	0	0	0	0	485	423	
4	0	0	0	0	477	423	
5	0	0	0	0	468	424	
6	0	0	0	0	465	423	
7	0	0	0	0	465	423	
8	0	0	0	0	467	423	
9	0	0	0	0	470	423	
10	0	0	0	0	474	423	
11	0	0	0	0	473	423	
12	0	0	0	0	476	423	
13	0	0	0	0	474	423	
14	0	0	0	0	470	423	
15	0	0	0	0	472	423	
0	0	0	0	0	480	423	
1	0	0	0	0	492	423	
2	0	0	0	0	502	423	
3	0	0	0	0	505	423	
4	0	0	0	0	505	423	
5	0	0	0	0	508	423	
6	0	0	0	0	511	423	
7	0	0	0	0	509	423	
8	0	0	0	0	510	423	
9	0	0	0	0	513	423	
10	0	0	0	0	523	423	
11	0	0	0	0	531	423	
12	0	0	0	0	532	423	
13	0	0	0	0	524	423	
14	0	0	0	0	512	423	
15	0	0	0	0	506	423	
0	0	0	0	0	500	423	
1	0	0	0	0	488	423	
2	0	0	0	0	473	423	
3	0	0	0	0	465	423	
4	0	0	0	0	468	423	
5	0	0	0	0	471	423	
6	0	0	0	0	480	423	
7	0	0	0	0	483	423	
8	0	0	0	0	487	423	
9	0	0	0	0	494	423	
10	0	0	0	0	498	423	
11	0	0	0	0	497	423	
12	0	0	0	0	497	423	
13	0	0	0	0	498	423	
14	0	0	0	0	500	423	
15	0	0	0	0	503	423	
0	0	0	0	0	506	423	
1	0	0	0	0	512	423	
2	0	0	0	0	515	423	
3	0	0	0	0	514	423	
4	0	0	0	0	511	423	
5	0	0	0	0	503	422	
6	0	0	0	0	495	423	
7	0	0	0	0	491	423	
8	0	0	0	0	492	423	
9	0	0	0	0	495	423	
10	0	0	0	0	496	422	
11	0	0	0	0	495	422	
12	0	0	0	0	495	422	
13	0	0	0	0	503	422	
14	0	0	0	0	512	422	
15	0	0	0	0	519	422	
0	0	0	0	0	519	422	
1	0	0	0	0	520	422	
2	0	0	0	0	529	422	
3	0	0	0	0	534	422	
4	0	0	0	0	537	422	
5	0	0	0	0	537	422	
6	0	0	0	0	535	422	
7	0	0	0	0	526	422	
8	0	0	0	0	516	422	
9	0	0	0	0	514	422	
10	0	0	0	0	513	422	
11	0	0	0	0	516	422	
12	0	0	0	0	520	422	
13	0	0	0	0	525	422	
14	0	0	0	0	522	422	
15	0	0	0	0	515	422	
0	0	0	0	0	512	422	
1	0	0	0	0	516	422	
2	0	0	0	0	518	422	
3	0	0	0	0	520	422	
4	0	0	0	0	525	422	
5	0	0	0	0	525	422	
6	0	0	0	0	531	422	
7	0	0	0	0	538	422	
8	0	0	0	0	542	422	
9	0	0	0	0	540	422	
10	0	0	0	0	541	422	
11	0	0	0	0	544	422	
12	0	0	0	0	551	422	
13	0	0	0	0	561	422	
14	0	0	0	0	563	422	
15	0	0	0	0	559	422	
0	0	0	0	0	558	422	
1	0	0	0	0	556	422	
2	0	0	0	0	552	422	
3	0	0	0	0	545	422	
4	0	0	0	0	533	422	
5	0	0	0	0	531	422	
6	0	0	0	0	534	422	
7	0	0	0	0	542	422	
8	0	0	0	0	545	422	
9	0	0	0	0	548	422	
10	0	0	0	0	557	422	
11	0	0	0	0	566	422	
12	0	0	0	0	569	422	
13	0	0	0	0	572	422	
14	0	0	0	0	574	422	
15	0	0	0	0	567	422	
0	0	0	0	0	558	422	
1	0	0	0	0	547	422	
2	0	0	0	0	532	422	
3	0	0	0	0	519	422	
4	0	0	0	0	516	422	
5	0	0	0	0	524	422	
6	0	0	0	0	538	422	
7	0	0	0	0	555	421	
8	0	0	0	0	571	422	
9	0	0	0	0	575	422	
10	0	0	0	0	567	422	
11	0	0	0	0	556	422	
12	0	0	0	0	545	422	
13	0	0	0	0	531	422	
14	0	0	0	0	519	421	
15	0	0	0	0	519	422	
0	0	0	0	0	525	422	
1	0	0	0	0	529	421	
2	0	0	0	0	534	422	
3	0	0	0	0	540	422	
4	0	0	0	0	543	421	
5	0	0	0	0	542	421	
6	0	0	0	0	542	421	
7	0	0	0	0	547	421	
8	0	0	0	0	549	421	
9	0	0	0	0	547	421	
10	0	0	0	0	541	421	
11	0	0	0	0	528	421	
12	0	0	0	0	515	421	
13	0	0	0	0	512	421	
14	0	0	0	0	513	421	
15	0	0	0	0	515	421	
0	0	0	0	0	519	421	
1	0	0	0	0	525	421	
2	0	0	0	0	528	421	
3	0	0	0	0	519	421	
4	0	0	0	0	517	421	
5	0	0	0	0	524	421	
6	0	0	0	0	523	421	
7	0	0	0	0	526	421	
8	0	0	0	0	526	421	
9	0	0	0	0	521	421	
10	0	0	0	0	516	421	
11	0	0	0	0	505	421	
12	0	0	0	0	494	420	
13	0	0	0	0	496	421	
14	0	0	0	0	499	420	
15	0	0	0	0	507	421	
0	0	0	0	0	512	421	
1	0	0	0	0	517	421	
2	0	0	0	0	518	420	
3	0	0	0	0	516	420	
4	0	0	0	0	512	420	
5	0	0	0	0	508	420	
6	0	0	0	0	505	420	
7	0	0	0	0	505	420	
8	0	0	0	0	506	420	
9	0	0	0	0	503	420	
10	0	0	0	0	499	420	
11	0	0	0	0	503	420	
12	0	0	0	0	509	420	
13	0	0	0	0	512	420	
14	0	0	0	0	515	420	
15	0	0	0	0	519	420	
0	0	0	0	0	513	420	
1	0	0	0	0	514	420	
2	0	0	0	0	515	420	
3	0	0	0	0	508	420	
4	0	0	0	0	494	420	
5	0	0	0	0	487	420	
6	0	0	0	0	484	420	
7	0	0	0	0	482	420	
8	0	0	0	0	479	420	
9	0	0	0	0	476	420	
10	0	0	0	0	472	419	
11	0	0	0	0	476	419	
12	0	0	0	0	487	419	
13	0	0	0	0	490	420	
14	0	0	0	0	483	419	
15	0	0	0	0	474	419	
0	0	0	0	0	467	419	
1	0	0	0	0	467	419	
2	0	0	0	0	467	419	
3	0	0	0	0	472	419	
4	0	0	0	0	477	419	
5	0	0	0	0	473	419	
6	0	0	0	0	472	419	
7	0	0	0	0	473	419	
8	0	0	0	0	476	419	
9	0	0	0	0	475	419	
10	0	0	0	0	469	419	
11	0	0	0	0	471	419	
12	0	0	0	0	474	419	
13	0	0	0	0	471	419	
14	0	0	0	0	465	419	
15	0	0	0	0	470	419	
0	0	0	0	0	481	419	
1	0	0	0	0	480	419	
2	0	0	0	0	479	419	
3	0	0	0	0	475	419	
4	0	0	0	0	471	419	
5	0	0	0	0	472	419	
6	0	0	0	0	469	419	
7	0	0	0	0	468	419	
8	0	0	0	0	467	419	
9	0	0	0	0	467	419	
10	0	0	0	0	475	419	
11	0	0	0	0	482	419	
12	0	0	0	0	488	419	
13	0	0	0	0	493	419	
14	0	0	0	0	495	419	
15	0	0	0	0	502	418	
0	0	0	0	0	507	418	
1	0	0	0	0	508	418	
2	0	0	0	0	513	418	
3	0	0	0	0	516	418	
4	0	0	0	0	515	418	
5	0	0	0	0	518	419	
6	0	0	0	0	517	418	
7	0	0	0	0	515	418	
8	0	0	0	0	514	418	
9	0	0	0	0	509	418	
10	0	0	0	0	504	418	
11	0	0	0	0	495	418	
12	0	0	0	0	485	418	
13	0	0	0	0	478	418	
14	0	0	0	0	476	418	
15	0	0	0	0	480	418	
0	0	0	0	0	483	418	
1	0	0	0	0	488	418	
2	0	0	0	0	492	418	
3	0	0	0	0	487	418	
4	0	0	0	0	482	418	
5	0	0	0	0	480	418	
6	0	0	0	0	485	418	
7	0	0	0	0	491	418	
8	0	0	0	0	492	418	
9	0	0	0	0	489	418	
10	0	0	0	0	491	418	
11	0	0	0	0	496	418	
12	0	0	0	0	501	418	
13	0	0	0	0	499	418	
14	0	0	0	0	495	418	
15	0	0	0	0	487	418	
0	0	0	0	0	484	418	
1	0	0	0	0	485	418	
2	0	0	0	0	490	418	
3	0	0	0	0	496	418	
4	0	0	0	0	502	419	
5	0	0	0	0	507	418	
6	0	0	0	0	510	418	
7	0	0	0	0	509	418	
8	0	0	0	0	507	418	
9	0	0	0	0	502	419	
10	0	0	0	0	491	418	
11	0	0	0	0	486	418	
12	0	0	0	0	494	418	
13	0	0	0	0	503	418	
14	0	0	0	0	508	419	
15	0	0	0	0	509	418	
0	0	0	0	0	510	418	
1	0	0	0	0	510	418	
2	0	0	0	0	515	418	
3	0	0	0	0	522	418	
4	0	0	0	0	516	418	
5	0	0	0	0	507	418	
6	0	0	0	0	504	418	
7	0	0	0	0	502	419	
8	0	0	0	0	489	419	
9	0	0	0	0	472	418	
10	0	0	0	0	462	418	
11	0	0	0	0	464	418	
12	0	0	0	0	475	419	
13	0	0	0	0	488	419	
14	0	0	0	0	494	418	
15	0	0	0	0	491	419	
0	0	0	0	0	487	418	
1	0	0	0	0	487	418	
2	0	0	0	0	487	419	
3	0	0	0	0	486	418	
4	0	0	0	0	488	419	
5	0	0	0	0	486	418	
6	0	0	0	0	478	419	
7	0	0	0	0	469	419	
8	0	0	0	0	460	418	
9	0	0	0	0	456	419	
10	0	0	0	0	457	418	
11	0	0	0	0	458	419	
12	0	0	0	0	462	419	
13	0	0	0	0	472	419	
14	0	0	0	0	487	419	
15	0	0	0	0	503	419	
0	0	0	0	0	514	419	
1	0	0	0	0	521	419	
2	0	0	0	0	519	419	
3	0	0	0	0	517	419	
4	0	0	0	0	508	419	
5	0	0	0	0	492	419	
6	0	0	0	0	483	419	
7	0	0	0	0	486	419	
8	0	0	0	0	488	419	
9	0	0	0	0	499	419	
10	0	0	0	0	515	419	
11	0	0	0	0	519	419	
12	0	0	0	0	511	419	
13	0	0	0	0	498	419	
14	0	0	0	0	489	419	
15	0	0	0	0	481	419	
0	0	0	0	0	479	419	
1	0	0	0	0	482	419	
2	0	0	0	0	480	419	
3	0	0	0	0	481	419	
4	0	0	0	0	488	419	
5	0	0	0	0	498	419	
6	0	0	0	0	500	419	
7	0	0	0	0	500	419	
8	0	0	0	0	506	419	
9	0	0	0	0	515	419	
10	0	0	0	0	521	419	
11	0	0	0	0	524	419	
12	0	0	0	0	529	419	
13	0	0	0	0	534	419	
14	0	0	0	0	535	419	
15	0	0	0	0	534	419	
0	0	0	0	0	533	419	
1	0	0	0	0	527	419	
2	0	0	0	0	519	419	
3	0	0	0	0	524	419	
4	0	0	0	0	531	419	
5	0	0	0	0	536	419	
6	0	0	0	0	537	419	
7	0	0	0	0	529	419	
8	0	0	0	0	515	419	
9	0	0	0	0	509	419	
10	0	0	0	0	506	419	
11	0	0	0	0	503	419	
12	0	0	0	0	507	419	
13	0	0	0	0	514	419	
14	0	0	0	0	512	419	
15	0	0	0	0	511	419	
0	0	0	0	0	503	419	
1	0	0	0	0	496	419	
2	0	0	0	0	496	419	
3	0	0	0	0	496	419	
4	0	0	0	0	496	419	
5	0	0	0	0	484	419	
6	0	0	0	0	480	419	
7	0	0	0	0	486	419	
8	0	0	0	0	497	419	
9	0	0	0	0	504	419	
10	0	0	0	0	511	419	
11	0	0	0	0	518	419	
12	0	0	0	0	523	419	
13	0	0	0	0	533	419	
14	0	0	0	0	538	419	
15	0	0	0	0	535	419	
0	0	0	0	0	525	419	
1	0	0	0	0	518	419	
2	0	0	0	0	512	419	
3	0	0	0	0	509	419	
4	0	0	0	0	510	419	
5	0	0	0	0	513	419	
6	0	0	0	0	513	419	
7	0	0	0	0	508	419	
8	0	0	0	0	504	419	
9	0	0	0	0	501	419	
10	0	0	0	0	500	419	
11	0	0	0	0	504	419	
12	0	0	0	0	502	419	
13	0	0	0	0	500	419	
14	0	0	0	0	502	419	
15	0	0	0	0	504	419	
0	0	0	0	0	511	419	
1	0	0	0	0	513	419	
2	0	0	0	0	516	419	
3	0	0	0	0	519	419	
4	0	0	0	0	518	419	
5	0	0	0	0	519	419	
6	0	0	0	0	524	419	
7	0	0	0	0	524	419	
8	0	0	0	0	516	419	
9	0	0	0	0	510	418	
10	0	0	0	0	507	419	
11	0	0	0	0	507	418	
12	0	0	0	0	508	418	
13	0	0	0	0	509	418	
14	0	0	0	0	515	418	
15	0	0	0	0	512	418	
0	0	0	0	0	504	418	
1	0	0	0	0	499	418	
2	0	0	0	0	492	418	
3	0	0	0	0	483	418	
4	0	0	0	0	476	418	
5	0	0	0	0	476	418	
6	0	0	0	0	488	418	
7	0	0	0	0	499	418	
8	0	0	0	0	507	418	
9	0	0	0	0	513	418	
10	0	0	0	0	516	418	
11	0	0	0	0	520	418	
12	0	0	0	0	526	418	
13	0	0	0	0	527	418	
14	0	0	0	0	531	418	
15	0	0	0	0	530	418	
0	0	0	0	0	524	418	
1	0	0	0	0	505	418	
2	0	0	0	0	489	418	
3	0	0	0	0	482	417	
4	0	0	0	0	475	418	
5	0	0	0	0	473	417	
6	0	0	0	0	482	417	
7	0	0	0	0	487	417	
8	0	0	0	0	487	417	
9	0	0	0	0	488	417	
10	0	0	0	0	491	417	
11	0	0	0	0	492	417	
12	0	0	0	0	499	417	
13	0	0	0	0	503	417	
14	0	0	0	0	503	417	
15	0	0	0	0	500	417	
0	0	0	0	0	507	417	
1	0	0	0	0	521	417	
2	0	0	0	0	531	417	
3	0	0	0	0	537	417	
4	0	0	0	0	535	417	
5	0	0	0	0	527	417	
6	0	0	0	0	519	417	
7	0	0	0	0	511	417	
8	0	0	0	0	509	417	
9	0	0	0	0	511	417	
10	0	0	0	0	514	416	
11	0	0	0	0	517	416	
12	0	0	0	0	519	416	
13	0	0	0	0	521	416	
14	0	0	0	0	521	416	
15	0	0	0	0	514	416	
0	0	0	0	0	509	416	
1	0	0	0	0	508	416	
2	0	0	0	0	503	416	
3	0	0	0	0	500	416	
4	0	0	0	0	496	416	
5	0	0	0	0	491	416	
6	0	0	0	0	495	416	
7	0	0	0	0	495	416	
8	0	0	0	0	493	415	
9	0	0	0	0	493	415	
10	0	0	0	0	494	415	
11	0	0	0	0	500	415	
12	0	0	0	0	503	416	
13	0	0	0	0	500	415	
14	0	0	0	0	499	415	
15	0	0	0	0	506	415	
0	0	0	0	0	520	415	
1	0	0	0	0	533	415	
2	0	0	0	0	547	415	
3	0	0	0	0	549	415	
4	0	0	0	0	544	415	
5	0	0	0	0	535	415	
6	0	0	0	0	523	415	
7	0	0	0	0	512	415	
8	0	0	0	0	504	415	
9	0	0	0	0	501	415	
10	0	0	0	0	492	415	
11	0	0	0	0	483	415	
12	0	0	0	0	484	415	
13	0	0	0	0	487	415	
14	0	0	0	0	491	415	
15	0	0	0	0	497	415	
0	0	0	0	0	502	415	
1	0	0	0	0	504	414	
2	0	0	0	0	510	414	
3	0	0	0	0	516	414	
4	0	0	0	0	520	414	
5	0	0	0	0	524	414	
6	0	0	0	0	531	414	
7	0	0	0	0	534	414	
8	0	0	0	0	529	414	
9	0	0	0	0	527	414	
10	0	0	0	0	525	414	
11	0	0	0	0	530	414	
12	0	0	0	0	531	414	
13	0	0	0	0	524	414	
14	0	0	0	0	520	414	
15	0	0	0	0	524	414	
0	0	0	0	0	524	414	
1	0	0	0	0	519	414	
2	0	0	0	0	527	414	
3	0	0	0	0	533	414	
4	0	0	0	0	540	413	
5	0	0	0	0	543	413	
6	0	0	0	0	542	413	
7	0	0	0	0	541	413	
8	0	0	0	0	535	413	
9	0	0	0	0	527	413	
10	0	0	0	0	524	413	
11	0	0	0	0	521	413	
12	0	0	0	0	516	413	
13	0	0	0	0	513	413	
14	0	0	0	0	511	413	
15	0	0	0	0	507	413	
0	0	0	0	0	504	413	
1	0	0	0	0	499	412	
2	0	0	0	0	496	412	
3	0	0	0	0	502	413	
4	0	0	0	0	506	412	
5	0	0	0	0	508	412	
6	0	0	0	0	508	412	
7	0	0	0	0	507	412	
8	0	0	0	0	513	412	
9	0	0	0	0	525	412	
10	0	0	0	0	537	412	
11	0	0	0	0	543	412	
12	0	0	0	0	540	412	
13	0	0	0	0	537	412	
14	0	0	0	0	542	412	
15	0	0	0	0	548	412	
0	0	0	0	0	544	412	
1	0	0	0	0	533	412	
2	0	0	0	0	527	412	
3	0	0	0	0	528	412	
4	0	0	0	0	529	412	
5	0	0	0	0	523	412	
6	0	0	0	0	508	412	
7	0	0	0	0	493	412	
8	0	0	0	0	495	412	
9	0	0	0	0	500	412	
10	0	0	0	0	508	412	
11	0	0	0	0	513	412	
12	0	0	0	0	512	412	
13	0	0	0	0	512	412	
14	0	0	0	0	515	412	
15	0	0	0	0	515	412	
0	0	0	0	0	515	412	
1	0	0	0	0	511	412	
2	0	0	0	0	508	412	
3	0	0	0	0	505	412	
4	0	0	0	0	504	412	
5	0	0	0	0	503	412	
6	0	0	0	0	498	412	
7	0	0	0	0	502	412	
8	0	0	0	0	506	412	
9	0	0	0	0	506	412	
10	0	0	0	0	505	412	
11	0	0	0	0	508	412	
12	0	0	0	0	515	412	
13	0	0	0	0	521	412	
14	0	0	0	0	527	412	
15	0	0	0	0	536	412	
0	0	0	0	0	542	412	
1	0	0	0	0	542	412	
2	0	0	0	0	542	412	
3	0	0	0	0	542	412	
4	0	0	0	0	537	412	
5	0	0	0	0	533	412	
6	0	0	0	0	531	412	
7	0	0	0	0	525	412	
8	0	0	0	0	518	412	
9	0	0	0	0	515	412	
10	0	0	0	0	512	412	
11	0	0	0	0	507	412	
12	0	0	0	0	500	412	
13	0	0	0	0	497	412	
14	0	0	0	0	496	412	
15	0	0	0	0	497	413	
0	0	0	0	0	496	412	
1	0	0	0	0	502	413	
2	0	0	0	0	504	413	
3	0	0	0	0	505	413	
4	0	0	0	0	513	413	
5	0	0	0	0	525	413	
6	0	0	0	0	533	413	
7	0	0	0	0	537	413	
8	0	0	0	0	537	413	
9	0	0	0	0	537	413	
10	0	0	0	0	541	413	
11	0	0	0	0	547	414	
12	0	0	0	0	550	414	
13	0	0	0	0	544	414	
14	0	0	0	0	536	414	
15	0	0	0	0	531	414	
0	0	0	0	0	534	414	
1	0	0	0	0	541	414	
2	0	0	0	0	547	414	
3	0	0	0	0	551	414	
4	0	0	0	0	553	415	
5	0	0	0	0	555	415	
6	0	0	0	0	553	415	
7	0	0	0	0	553	415	
8	0	0	0	0	558	415	
9	0	0	0	0	557	415	
10	0	0	0	0	554	415	
11	0	0	0	0	552	415	
12	0	0	0	0	550	415	
13	0	0	0	0	548	416	
14	0	0	0	0	544	416	
15	0	0	0	0	536	416	
0	0	0	0	0	533	416	
1	0	0	0	0	535	416	
2	0	0	0	0	535	416	
3	0	0	0	0	534	416	
4	0	0	0	0	534	416	
5	0	0	0	0	531	416	
6	0	0	0	0	537	417	
7	0	0	0	0	544	417	
8	0	0	0	0	550	417	
9	0	0	0	0	550	417	
10	0	0	0	0	540	417	
11	0	0	0	0	535	417	
12	0	0	0	0	534	418	
13	0	0	0	0	523	417	
14	0	0	0	0	518	417	
15	0	0	0	0	527	418	
0	0	0	0	0	542	418	
1	0	0	0	0	558	418	
2	0	0	0	0	570	418	
3	0	0	0	0	577	418	
4	0	0	0	0	575	419	
5	0	0	0	0	574	419	
6	0	0	0	0	574	419	
7	0	0	0	0	571	419	
8	0	0	0	0	563	419	
9	0	0	0	0	550	419	
10	0	0	0	0	543	419	
11	0	0	0	0	539	419	
12	0	0	0	0	540	419	
13	0	0	0	0	544	419	
14	0	0	0	0	547	420	
15	0	0	0	0	547	420	
0	0	0	0	0	551	420	
1	0	0	0	0	556	420	
2	0	0	0	0	549	421	
3	0	0	0	0	537	421	
4	0	0	0	0	533	421	
5	0	0	0	0	529	421	
6	0	0	0	0	526	421	
7	0	0	0	0	525	421	
8	0	0	0	0	524	422	
9	0	0	0	0	517	422	
10	0	0	0	0	504	422	
11	0	0	0	0	504	422	
12	0	0	0	0	512	422	
13	0	0	0	0	520	422	
14	0	0	0	0	514	423	
15	0	0	0	0	509	423	
0	0	0	0	0	515	423	
1	0	0	0	0	525	423	
2	0	0	0	0	524	423	
3	0	0	0	0	524	423	
4	0	0	0	0	524	423	
5	0	0	0	0	529	423	
6	0	0	0	0	532	424	
7	0	0	0	0	533	424	
8	0	0	0	0	533	424	
9	0	0	0	0	536	424	
10	0	0	0	0	543	424	
11	0	0	0	0	545	425	
12	0	0	0	0	543	425	
13	0	0	0	0	537	425	
14	0	0	0	0	536	425	
15	0	0	0	0	541	425	
0	0	0	0	0	545	426	
1	0	0	0	0	550	426	
2	0	0	0	0	557	426	
3	0	0	0	0	561	426	
4	0	0	0	0	570	426	
5	0	0	0	0	567	427	
6	0	0	0	0	559	427	
7	0	0	0	0	549	427	
8	0	0	0	0	540	427	
9	0	0	0	0	539	428	
10	0	0	0	0	537	428	
11	0	0	0	0	538	428	
12	0	0	0	0	539	428	
13	0	0	0	0	535	428	
14	0	0	0	0	535	428	
15	0	0	0	0	536	428	
0	0	0	0	0	528	428	
1	0	0	0	0	523	429	
2	0	0	0	0	522	429	
3	0	0	0	0	525	429	
4	0	0	0	0	521	429	
5	0	0	0	0	525	429	
6	0	0	0	0	523	430	
7	0	0	0	0	517	430	
8	0	0	0	0	517	430	
9	0	0	0	0	522	430	
10	0	0	0	0	526	431	
11	0	0	0	0	529	431	
12	0	0	0	0	540	431	
13	0	0	0	0	549	431	
14	0	0	0	0	545	432	
15	0	0	0	0	538	431	
0	0	0	0	0	533	432	
1	0	0	0	0	534	432	
2	0	0	0	0	542	432	
3	0	0	0	0	548	432	
4	0	0	0	0	544	432	
5	0	0	0	0	541	432	
6	0	0	0	0	538	433	
7	0	0	0	0	533	433	
8	0	0	0	0	532	433	
9	0	0	0	0	538	433	
10	0	0	0	0	537	433	
11	0	0	0	0	540	434	
12	0	0	0	0	542	434	
13	0	0	0	0	536	434	
14	0	0	0	0	524	434	
15	0	0	0	0	522	434	
0	0	0	0	0	526	435	
1	0	0	0	0	524	435	
2	0	0	0	0	517	435	
3	0	0	0	0	521	435	
4	0	0	0	0	528	435	
5	0	0	0	0	534	435	
6	0	0	0	0	538	435	
7	0	0	0	0	543	435	
8	0	0	0	0	553	436	
9	0	0	0	0	568	436	
10	0	0	0	0	578	436	
11	0	0	0	0	582	436	
12	0	0	0	0	588	437	
13	0	0	0	0	593	437	
14	0	0	0	0	604	437	
15	0	0	0	0	614	437	
0	0	0	0	0	622	437	
1	0	0	0	0	627	437	
2	0	0	0	0	636	438	
3	0	0	0	0	644	438	
4	0	0	0	0	659	438	
5	0	0	0	0	687	438	
6	0	0	0	0	721	438	
7	0	0	0	0	753	439	
8	0	0	0	0	783	439	
9	0	0	0	0	806	439	
10	0	0	0	0	823	439	
11	0	0	0	0	832	439	
12	0	0	0	0	849	439	
13	0	0	0	0	863	440	
14	0	0	0	0	864	440	
15	0	0	0	0	865	440	
0	0	0	0	0	863	440	
1	0	0	0	0	862	440	
2	0	0	0	0	858	440	
3	0	0	0	0	845	440	
4	0	0	0	0	825	440	
5	0	0	0	0	808	440	
6	0	0	0	0	793	440	
7	0	0	0	0	777	441	
8	0	0	0	0	764	441	
9	0	0	0	0	749	441	
10	0	0	0	0	738	441	
11	0	0	0	0	742	441	
12	0	0	0	0	743	441	
13	0	0	0	0	731	442	
14	0	0	0	0	717	441	
15	0	0	0	0	698	442	
0	0	0	0	0	673	441	
1	0	0	0	0	659	442	
2	0	0	0	0	647	442	
3	0	0	0	0	634	442	
4	0	0	0	0	620	442	
5	0	0	0	0	599	442	
6	0	0	0	0	572	442	
7	0	0	0	0	548	442	
8	0	0	0	0	531	443	
9	0	0	0	0	526	443	
10	0	0	0	0	523	443	
11	0	0	0	0	515	443	
12	0	0	0	0	508	443	
13	0	0	0	0	505	443	
14	0	0	0	0	502	443	
15	0	0	0	0	502	443	
0	0	0	0	0	507	443	
1	0	0	0	0	505	443	
2	0	0	0	0	500	444	
3	0	0	0	0	496	444	
4	0	0	0	0	489	444	
5	0	0	0	0	484	444	
6	0	0	0	0	483	444	
7	0	0	0	0	482	444	
8	0	0	0	0	478	444	
9	0	0	0	0	474	444	
10	0	0	0	0	471	444	
11	0	0	0	0	477	444	
12	0	0	0	0	479	444	
13	0	0	0	0	472	444	
14	0	0	0	0	459	444	
15	0	0	0	0	446	445	
0	0	0	0	0	441	445	
1	0	0	0	0	452	445	
2	0	0	0	0	470	445	
3	0	0	0	0	473	445	
4	0	0	0	0	474	445	
5	0	0	0	0	475	445	
6	0	0	0	0	478	446	
7	0	0	0	0	481	446	
8	0	0	0	0	485	446	
9	0	0	0	0	481	446	
10	0	0	0	0	472	446	
11	0	0	0	0	465	446	
12	0	0	0	0	457	446	
13	0	0	0	0	460	446	
14	0	0	0	0	463	446	
15	0	0	0	0	472	447	
0	0	0	0	0	476	446	
1	0	0	0	0	478	446	
2	0	0	0	0	479	447	
3	0	0	0	0	478	446	
4	0	0	0	0	473	447	
5	0	0	0	0	470	447	
6	0	0	0	0	468	447	
7	0	0	0	0	469	447	
8	0	0	0	0	472	447	
9	0	0	0	0	471	447	
10	0	0	0	0	471	447	
11	0	0	0	0	477	447	
12	0	0	0	0	480	447	
13	0	0	0	0	486	447	
14	0	0	0	0	489	448	
15	0	0	0	0	490	447	
0	0	0	0	0	497	448	
1	0	0	0	0	503	448	
2	0	0	0	0	505	448	
3	0	0	0	0	500	448	
4	0	0	0	0	492	448	
5	0	0	0	0	483	448	
6	0	0	0	0	481	448	
7	0	0	0	0	483	448	
8	0	0	0	0	489	448	
9	0	0	0	0	484	448	
10	0	0	0	0	472	448	
11	0	0	0	0	464	448	
12	0	0	0	0	467	448	
13	0	0	0	0	477	448	
14	0	0	0	0	490	448	
15	0	0	0	0	494	448	
0	0	0	0	0	494	448	
1	0	0	0	0	494	449	
2	0	0	0	0	497	449	
3	0	0	0	0	506	449	
4	0	0	0	0	504	449	
5	0	0	0	0	503	449	
6	0	0	0	0	507	449	
7	0	0	0	0	506	449	
8	0	0	0	0	510	449	
9	0	0	0	0	507	449	
10	0	0	0	0	507	449	
11	0	0	0	0	510	449	
12	0	0	0	0	506	449	
13	0	0	0	0	511	449	
14	0	0	0	0	517	449	
15	0	0	0	0	526	449	
0	0	0	0	0	530	449	
1	0	0	0	0	530	449	
2	0	0	0	0	530	449	
3	0	0	0	0	527	449	
4	0	0	0	0	520	449	
5	0	0	0	0	511	449	
6	0	0	0	0	498	450	
7	0	0	0	0	484	449	
8	0	0	0	0	475	450	
9	0	0	0	0	467	450	
10	0	0	0	0	468	449	
11	0	0	0	0	484	450	
12	0	0	0	0	488	450	
13	0	0	0	0	494	450	
14	0	0	0	0	498	450	
15	0	0	0	0	504	450	
0	0	0	0	0	513	450	
1	0	0	0	0	517	450	
2	0	0	0	0	521	450	
3	0	0	0	0	526	450	
4	0	0	0	0	523	450	
5	0	0	0	0	522	450	
6	0	0	0	0	519	450	
7	0	0	0	0	515	450	
8	0	0	0	0	512	450	
9	0	0	0	0	513	450	
10	0	0	0	0	515	450	
11	0	0	0	0	523	450	
12	0	0	0	0	528	450	
13	0	0	0	0	529	450	
14	0	0	0	0	530	450	
15	0	0	0	0	535	451	
0	0	0	0	0	538	450	
1	0	0	0	0	537	451	
2	0	0	0	0	527	451	
3	0	0	0	0	513	451	
4	0	0	0	0	509	451	
5	0	0	0	0	511	451	
6	0	0	0	0	509	451	
7	0	0	0	0	507	451	
8	0	0	0	0	495	451	
9	0	0	0	0	494	451	
10	0	0	0	0	502	451	
11	0	0	0	0	513	451	
12	0	0	0	0	524	451	
13	0	0	0	0	529	451	
14	0	0	0	0	529	451	
15	0	0	0	0	532	451	
0	0	0	0	0	538	451	
1	0	0	0	0	541	451	
2	0	0	0	0	543	451	
3	0	0	0	0	542	451	
4	0	0	0	0	540	451	
5	0	0	0	0	542	451	
6	0	0	0	0	548	451	
7	0	0	0	0	551	451	
8	0	0	0	0	556	451	
9	0	0	0	0	553	451	
10	0	0	0	0	546	451	
11	0	0	0	0	534	451	
12	0	0	0	0	526	451	
13	0	0	0	0	525	451	
14	0	0	0	0	523	451	
15	0	0	0	0	519	451	
0	0	0	0	0	525	451	
1	0	0	0	0	534	451	
2	0	0	0	0	539	451	
3	0	0	0	0	541	451	
4	0	0	0	0	549	451	
5	0	0	0	0	559	451	
6	0	0	0	0	557	451	
7	0	0	0	0	552	451	
8	0	0	0	0	540	451	
9	0	0	0	0	529	451	
10	0	0	0	0	533	451	
11	0	0	0	0	540	451	
12	0	0	0	0	538	452	
13	0	0	0	0	533	451	
14	0	0	0	0	530	452	
15	0	0	0	0	534	451	
0	0	0	0	0	539	451	
1	0	0	0	0	543	452	
2	0	0	0	0	551	451	
3	0	0	0	0	551	451	
4	0	0	0	0	545	452	
5	0	0	0	0	543	451	
6	0	0	0	0	542	452	
7	0	0	0	0	541	451	
8	0	0	0	0	541	452	
9	0	0	0	0	548	451	
10	0	0	0	0	554	452	
11	0	0	0	0	567	452	
12	0	0	0	0	573	452	
13	0	0	0	0	575	452	
14	0	0	0	0	572	451	
15	0	0	0	0	567	452	
0	0	0	0	0	565	452	
1	0	0	0	0	569	452	
2	0	0	0	0	572	452	
3	0	0	0	0	573	452	
4	0	0	0	0	575	452	
5	0	0	0	0	580	452	
6	0	0	0	0	579	452	
7	0	0	0	0	578	452	
8	0	0	0	0	579	452	
9	0	0	0	0	575	452	
10	0	0	0	0	575	452	
11	0	0	0	0	582	452	
12	0	0	0	0	587	452	
13	0	0	0	0	589	452	
14	0	0	0	0	594	452	
15	0	0	0	0	593	452	
0	0	0	0	0	591	452	
1	0	0	0	0	584	451	
2	0	0	0	0	580	452	
3	0	0	0	0	580	452	
4	0	0	0	0	579	452	
5	0	0	0	0	569	452	
6	0	0	0	0	556	452	
7	0	0	0	0	550	452	
8	0	0	0	0	547	452	
9	0	0	0	0	549	452	
10	0	0	0	0	551	451	
11	0	0	0	0	557	452	
12	0	0	0	0	562	452	
13	0	0	0	0	563	451	
14	0	0	0	0	560	452	
15	0	0	0	0	553	452	
0	0	0	0	0	542	452	
1	0	0	0	0	533	451	
2	0	0	0	0	536	451	
3	0	0	0	0	551	451	
4	0	0	0	0	564	451	
5	0	0	0	0	570	451	
6	0	0	0	0	572	451	
7	0	0	0	0	571	451	
8	0	0	0	0	574	452	
9	0	0	0	0	575	452	
10	0	0	0	0	565	451	
11	0	0	0	0	562	451	
12	0	0	0	0	560	452	
13	0	0	0	0	554	451	
14	0	0	0	0	551	451	
15	0	0	0	0	548	451	
0	0	0	0	0	545	451	
1	0	0	0	0	539	451	
2	0	0	0	0	534	451	
3	0	0	0	0	536	451	
4	0	0	0	0	543	451	
5	0	0	0	0	546	451	
6	0	0	0	0	543	451	
7	0	0	0	0	544	451	
8	0	0	0	0	545	451	
9	0	0	0	0	542	451	
10	0	0	0	0	540	451	
11	0	0	0	0	537	451	
12	0	0	0	0	535	451	
13	0	0	0	0	537	451	
14	0	0	0	0	541	451	
15	0	0	0	0	540	451	
0	0	0	0	0	536	451	
1	0	0	0	0	531	451	
2	0	0	0	0	533	451	
3	0	0	0	0	540	451	
4	0	0	0	0	547	451	
5	0	0	0	0	555	451	
6	0	0	0	0	558	451	
7	0	0	0	0	549	451	
8	0	0	0	0	536	451	
9	0	0	0	0	536	451	
10	0	0	0	0	534	451	
11	0	0	0	0	529	451	
12	0	0	0	0	522	451	
13	0	0	0	0	511	451	
14	0	0	0	0	504	451	
15	0	0	0	0	497	451	
0	0	0	0	0	488	451	
1	0	0	0	0	488	451	
2	0	0	0	0	496	451	
3	0	0	0	0	512	451	
4	0	0	0	0	527	451	
5	0	0	0	0	531	451	
6	0	0	0	0	534	451	
7	0	0	0	0	528	451	
8	0	0	0	0	516	451	
9	0	0	0	0	512	451	
10	0	0	0	0	510	451	
11	0	0	0	0	507	451	
12	0	0	0	0	508	451	
13	0	0	0	0	505	451	
14	0	0	0	0	503	451	
15	0	0	0	0	499	451	
0	0	0	0	0	497	451	
1	0	0	0	0	495	451	
2	0	0	0	0	500	451	
3	0	0	0	0	502	451	
4	0	0	0	0	504	451	
5	0	0	0	0	505	451	
6	0	0	0	0	500	451	
7	0	0	0	0	498	451	
8	0	0	0	0	494	451	
9	0	0	0	0	497	451	
10	0	0	0	0	499	451	
11	0	0	0	0	499	451	
12	0	0	0	0	505	451	
13	0	0	0	0	508	451	
14	0	0	0	0	514	451	
15	0	0	0	0	523	451	
0	0	0	0	0	527	451	
1	0	0	0	0	520	451	
2	0	0	0	0	510	450	
3	0	0	0	0	495	451	
4	0	0	0	0	479	450	
5	0	0	0	0	464	451	
6	0	0	0	0	452	450	
7	0	0	0	0	444	450	
8	0	0	0	0	447	451	
9	0	0	0	0	452	450	
10	0	0	0	0	455	450	
11	0	0	0	0	463	450	
12	0	0	0	0	463	450	
13	0	0	0	0	462	450	
14	0	0	0	0	464	450	
15	0	0	0	0	465	450	
0	0	0	0	0	467	450	
1	0	0	0	0	475	450	
2	0	0	0	0	486	450	
3	0	0	0	0	499	450	
4	0	0	0	0	510	450	
5	0	0	0	0	512	450	
6	0	0	0	0	513	450	
7	0	0	0	0	510	450	
8	0	0	0	0	505	450	
9	0	0	0	0	504	450	
10	0	0	0	0	504	450	
11	0	0	0	0	501	450	
12	0	0	0	0	500	450	
13	0	0	0	0	499	450	
14	0	0	0	0	498	450	
15	0	0	0	0	494	450	
0	0	0	0	0	493	450	
1	0	0	0	0	498	450	
2	0	0	0	0	499	450	
3	0	0	0	0	494	449	
4	0	0	0	0	487	449	
5	0	0	0	0	480	449	
6	0	0	0	0	480	450	
7	0	0	0	0	480	449	
8	0	0	0	0	479	449	
9	0	0	0	0	477	449	
10	0	0	0	0	487	449	
11	0	0	0	0	504	449	
12	0	0	0	0	516	449	
13	0	0	0	0	519	449	
14	0	0	0	0	515	449	
15	0	0	0	0	512	449	
0	0	0	0	0	508	449	
1	0	0	0	0	513	449	
2	0	0	0	0	518	449	
3	0	0	0	0	522	449	
4	0	0	0	0	520	449	
5	0	0	0	0	517	449	
6	0	0	0	0	504	449	
7	0	0	0	0	484	449	
8	0	0	0	0	476	449	
9	0	0	0	0	478	449	
10	0	0	0	0	483	449	
11	0	0	0	0	483	449	
12	0	0	0	0	480	449	
13	0	0	0	0	477	449	
14	0	0	0	0	472	448	
15	0	0	0	0	475	449	
0	0	0	0	0	476	448	
1	0	0	0	0	476	448	
2	0	0	0	0	478	448	
3	0	0	0	0	481	448	
4	0	0	0	0	481	448	
5	0	0	0	0	482	448	
6	0	0	0	0	483	448	
7	0	0	0	0	487	448	
8	0	0	0	0	491	448	
9	0	0	0	0	494	448	
10	0	0	0	0	504	448	
11	0	0	0	0	518	448	
12	0	0	0	0	524	448	
13	0	0	0	0	523	448	
14	0	0	0	0	522	448	
15	0	0	0	0	520	448	
0	0	0	0	0	515	448	
1	0	0	0	0	508	448	
2	0	0	0	0	492	448	
3	0	0	0	0	480	448	
4	0	0	0	0	474	447	
5	0	0	0	0	470	447	
6	0	0	0	0	463	447	
7	0	0	0	0	466	448	
8	0	0	0	0	479	448	
9	0	0	0	0	498	447	
10	0	0	0	0	507	447	
11	0	0	0	0	511	447	
12	0	0	0	0	510	447	
13	0	0	0	0	512	447	
14	0	0	0	0	512	447	
15	0	0	0	0	508	447	
0	0	0	0	0	511	447	
1	0	0	0	0	515	447	
2	0	0	0	0	510	447	
3	0	0	0	0	502	447	
4	0	0	0	0	499	447	
5	0	0	0	0	495	447	
6	0	0	0	0	489	447	
7	0	0	0	0	488	447	
8	0	0	0	0	486	446	
9	0	0	0	0	485	446	
10	0	0	0	0	487	446	
11	0	0	0	0	491	446	
12	0	0	0	0	494	446	
13	0	0	0	0	496	446	
14	0	0	0	0	497	446	
15	0	0	0	0	495	446	
0	0	0	0	0	493	446	
1	0	0	0	0	492	446	
2	0	0	0	0	492	446	
3	0	0	0	0	496	446	
4	0	0	0	0	503	446	
5	0	0	0	0	508	446	
6	0	0	0	0	512	446	
7	0	0	0	0	517	446	
8	0	0	0	0	520	445	
9	0	0	0	0	524	445	
10	0	0	0	0	527	445	
11	0	0	0	0	525	445	
12	0	0	0	0	514	445	
13	0	0	0	0	505	445	
14	0	0	0	0	500	445	
15	0	0	0	0	492	445	
0	0	0	0	0	485	445	
1	0	0	0	0	478	445	
2	0	0	0	0	478	445	
3	0	0	0	0	479	445	
4	0	0	0	0	481	445	
5	0	0	0	0	491	445	
6	0	0	0	0	499	444	
7	0	0	0	0	509	444	
8	0	0	0	0	511	444	
9	0	0	0	0	512	444	
10	0	0	0	0	516	444	
11	0	0	0	0	519	444	
12	0	0	0	0	522	444	
13	0	0	0	0	522	444	
14	0	0	0	0	516	444	
15	0	0	0	0	508	444	
0	0	0	0	0	500	444	
1	0	0	0	0	495	444	
2	0	0	0	0	490	444	
3	0	0	0	0	488	444	
4	0	0	0	0	489	444	
5	0	0	0	0	491	444	
6	0	0	0	0	494	444	
7	0	0	0	0	496	444	
8	0	0	0	0	496	444	
9	0	0	0	0	497	444	
10	0	0	0	0	500	443	
11	0	0	0	0	501	444	
12	0	0	0	0	499	443	
13	0	0	0	0	495	443	
14	0	0	0	0	494	444	
15	0	0	0	0	492	443	
0	0	0	0	0	492	443	
1	0	0	0	0	496	443	
2	0	0	0	0	501	443	
3	0	0	0	0	495	443	
4	0	0	0	0	490	443	
5	0	0	0	0	483	443	
6	0	0	0	0	474	443	
7	0	0	0	0	461	443	
8	0	0	0	0	453	443	
9	0	0	0	0	450	443	
10	0	0	0	0	456	443	
11	0	0	0	0	459	443	
12	0	0	0	0	457	443	
13	0	0	0	0	466	443	
14	0	0	0	0	477	443	
15	0	0	0	0	487	442	
0	0	0	0	0	495	442	
1	0	0	0	0	501	442	
2	0	0	0	0	507	442	
3	0	0	0	0	507	442	
4	0	0	0	0	504	442	
5	0	0	0	0	496	442	
6	0	0	0	0	491	442	
7	0	0	0	0	486	442	
8	0	0	0	0	488	442	
9	0	0	0	0	492	442	
10	0	0	0	0	495	441	
11	0	0	0	0	495	441	
12	0	0	0	0	494	441	
13	0	0	0	0	491	441	
14	0	0	0	0	488	441	
15	0	0	0	0	487	441	
0	0	0	0	0	487	441	
1	0	0	0	0	489	441	
2	0	0	0	0	487	441	
3	0	0	0	0	488	441	
4	0	0	0	0	493	441	
5	0	0	0	0	493	441	
6	0	0	0	0	495	441	
7	0	0	0	0	502	441	
8	0	0	0	0	508	441	
9	0	0	0	0	508	441	
10	0	0	0	0	511	440	
11	0	0	0	0	511	441	
12	0	0	0	0	505	440	
13	0	0	0	0	504	440	
14	0	0	0	0	502	440	
15	0	0	0	0	498	440	
0	0	0	0	0	492	440	
1	0	0	0	0	482	440	
2	0	0	0	0	472	440	
3	0	0	0	0	468	440	
4	0	0	0	0	468	440	
5	0	0	0	0	469	440	
6	0	0	0	0	476	440	
7	0	0	0	0	485	440	
8	0	0	0	0	495	440	
9	0	0	0	0	502	440	
10	0	0	0	0	496	440	
11	0	0	0	0	494	439	
12	0	0	0	0	492	440	
13	0	0	0	0	495	439	
14	0	0	0	0	503	439	
15	0	0	0	0	509	439	
0	0	0	0	0	507	439	
1	0	0	0	0	506	439	
2	0	0	0	0	504	439	
3	0	0	0	0	496	439	
4	0	0	0	0	486	439	
5	0	0	0	0	479	439	
6	0	0	0	0	477	439	
7	0	0	0	0	486	439	
8	0	0	0	0	491	439	
9	0	0	0	0	493	439	
10	0	0	0	0	501	439	
11	0	0	0	0	502	438	
12	0	0	0	0	496	438	
13	0	0	0	0	487	438	
14	0	0	0	0	486	438	
15	0	0	0	0	496	438	
0	0	0	0	0	507	438	
1	0	0	0	0	513	438	
2	0	0	0	0	516	438	
3	0	0	0	0	515	438	
4	0	0	0	0	514	438	
5	0	0	0	0	509	438	
6	0	0	0	0	501	438	
7	0	0	0	0	497	438	
8	0	0	0	0	498	438	
9	0	0	0	0	491	438	
10	0	0	0	0	486	438	
11	0	0	0	0	485	438	
12	0	0	0	0	478	437	
13	0	0	0	0	472	438	
14	0	0	0	0	472	437	
15	0	0	0	0	479	437	
0	0	0	0	0	483	437	
1	0	0	0	0	481	437	
2	0	0	0	0	481	437	
3	0	0	0	0	492	437	
4	0	0	0	0	504	437	
5	0	0	0	0	511	437	
6	0	0	0	0	512	437	
7	0	0	0	0	512	437	
8	0	0	0	0	508	437	
9	0	0	0	0	501	436	
10	0	0	0	0	496	437	
11	0	0	0	0	494	437	
12	0	0	0	0	491	436	
13	0	0	0	0	492	436	
14	0	0	0	0	492	436	
15	0	0	0	0	483	436	
0	0	0	0	0	474	436	
1	0	0	0	0	470	436	
2	0	0	0	0	468	436	
3	0	0	0	0	465	436	
4	0	0	0	0	466	436	
5	0	0	0	0	474	436	
6	0	0	0	0	478	436	
7	0	0	0	0	482	436	
8	0	0	0	0	482	436	
9	0	0	0	0	482	436	
10	0	0	0	0	483	436	
11	0	0	0	0	484	436	
12	0	0	0	0	484	435	
13	0	0	0	0	491	435	
14	0	0	0	0	504	435	
15	0	0	0	0	512	435	
0	0	0	0	0	513	435	
1	0	0	0	0	514	435	
2	0	0	0	0	512	435	
3	0	0	0	0	508	435	
4	0	0	0	0	501	435	
5	0	0	0	0	495	435	
6	0	0	0	0	487	435	
7	0	0	0	0	484	435	
8	0	0	0	0	484	435	
9	0	0	0	0	480	435	
10	0	0	0	0	480	435	
11	0	0	0	0	479	435	
12	0	0	0	0	478	435	
13	0	0	0	0	478	435	
14	0	0	0	0	483	434	
15	0	0	0	0	487	435	
0	0	0	0	0	485	434	
1	0	0	0	0	482	434	
2	0	0	0	0	484	434	
3	0	0	0	0	484	434	
4	0	0	0	0	476	434	
5	0	0	0	0	473	434	
6	0	0	0	0	473	434	
7	0	0	0	0	473	434	
8	0	0	0	0	471	434	
9	0	0	0	0	473	434	
10	0	0	0	0	483	434	
11	0	0	0	0	492	434	
12	0	0	0	0	500	434	
13	0	0	0	0	508	434	
14	0	0	0	0	510	434	
15	0	0	0	0	509	434	
0	0	0	0	0	504	434	
1	0	0	0	0	499	434	
2	0	0	0	0	498	434	
3	0	0	0	0	499	433	
4	0	0	0	0	502	434	
5	0	0	0	0	507	433	
6	0	0	0	0	500	433	
7	0	0	0	0	493	433	
8	0	0	0	0	487	433	
9	0	0	0	0	484	433	
10	0	0	0	0	483	433	
11	0	0	0	0	488	433	
12	0	0	0	0	494	433	
13	0	0	0	0	495	433	
14	0	0	0	0	494	433	
15	0	0	0	0	488	433	
0	0	0	0	0	482	433	
1	0	0	0	0	479	433	
2	0	0	0	0	483	433	
3	0	0	0	0	487	433	
4	0	0	0	0	493	433	
5	0	0	0	0	496	433	
6	0	0	0	0	492	433	
7	0	0	0	0	493	433	
8	0	0	0	0	502	433	
9	0	0	0	0	511	433	
10	0	0	0	0	515	433	
11	0	0	0	0	519	433	
12	0	0	0	0	515	433	
13	0	0	0	0	514	433	
14	0	0	0	0	519	433	
15	0	0	0	0	519	433	
0	0	0	0	0	512	433	
1	0	0	0	0	500	433	
2	0	0	0	0	491	433	
3	0	0	0	0	492	432	
4	0	0	0	0	495	432	
5	0	0	0	0	499	433	
6	0	0	0	0	504	433	
7	0	0	0	0	504	432	
8	0	0	0	0	499	432	
9	0	0	0	0	494	432	
10	0	0	0	0	491	432	
11	0	0	0	0	487	432	
12	0	0	0	0	488	432	
13	0	0	0	0	489	432	
14	0	0	0	0	488	432	
15	0	0	0	0	486	432	
0	0	0	0	0	483	432	
1	0	0	0	0	481	432	
2	0	0	0	0	479	432	
3	0	0	0	0	483	432	
4	0	0	0	0	493	432	
5	0	0	0	0	507	432	
6	0	0	0	0	515	432	
7	0	0	0	0	516	432	
8	0	0	0	0	514	432	
9	0	0	0	0	510	432	
10	0	0	0	0	503	432	
11	0	0	0	0	491	432	
12	0	0	0	0	485	432	
13	0	0	0	0	477	432	
14	0	0	0	0	470	432	
15	0	0	0	0	467	432	
0	0	0	0	0	459	432	
1	0	0	0	0	462	432	
2	0	0	0	0	471	432	
3	0	0	0	0	481	432	
4	0	0	0	0	483	432	
5	0	0	0	0	483	432	
6	0	0	0	0	484	432	
7	0	0	0	0	489	432	
8	0	0	0	0	494	432	
9	0	0	0	0	495	432	
10	0	0	0	0	495	431	
11	0	0	0	0	491	431	
12	0	0	0	0	491	431	
13	0	0	0	0	492	432	
14	0	0	0	0	493	432	
15	0	0	0	0	498	431	
0	0	0	0	0	497	431	
1	0	0	0	0	497	431	
2	0	0	0	0	505	431	
3	0	0	0	0	512	431	
4	0	0	0	0	518	431	
5	0	0	0	0	527	431	
6	0	0	0	0	541	431	
7	0	0	0	0	550	431	
8	0	0	0	0	549	432	
9	0	0	0	0	536	431	
10	0	0	0	0	527	431	
11	0	0	0	0	522	431	
12	0	0	0	0	512	431	
13	0	0	0	0	505	431	
14	0	0	0	0	498	431	
15	0	0	0	0	489	431	
0	0	0	0	0	484	431	
1	0	0	0	0	488	431	
2	0	0	0	0	500	431	
3	0	0	0	0	509	431	
4	0	0	0	0	519	431	
5	0	0	0	0	522	431	
6	0	0	0	0	521	431	
7	0	0	0	0	517	431	
8	0	0	0	0	511	431	
9	0	0	0	0	505	431	
10	0	0	0	0	505	431	
11	0	0	0	0	514	431	
12	0	0	0	0	525	431	
13	0	0	0	0	537	431	
14	0	0	0	0	545	431	
15	0	0	0	0	552	431	
0	0	0	0	0	550	431	
1	0	0	0	0	539	431	
2	0	0	0	0	525	431	
3	0	0	0	0	516	431	
4	0	0	0	0	515	431	
5	0	0	0	0	513	431	
6	0	0	0	0	510	431	
7	0	0	0	0	502	431	
8	0	0	0	0	497	431	
9	0	0	0	0	497	431	
10	0	0	0	0	496	430	
11	0	0	0	0	488	431	
12	0	0	0	0	480	430	
13	0	0	0	0	473	430	
14	0	0	0	0	469	431	
15	0	0	0	0	466	430	
0	0	0	0	0	464	431	
1	0	0	0	0	463	430	
2	0	0	0	0	471	431	
3	0	0	0	0	482	431	
4	0	0	0	0	492	431	
5	0	0	0	0	498	430	
6	0	0	0	0	500	430	
7	0	0	0	0	500	430	
8	0	0	0	0	508	430	
9	0	0	0	0	511	430	
10	0	0	0	0	511	431	
11	0	0	0	0	500	430	
12	0	0	0	0	486	430	
13	0	0	0	0	476	430	
14	0	0	0	0	475	430	
15	0	0	0	0	473	430	
0	0	0	0	0	470	430	
1	0	0	0	0	465	430	
2	0	0	0	0	458	430	
3	0	0	0	0	458	430	
4	0	0	0	0	462	430	
5	0	0	0	0	467	430	
6	0	0	0	0	476	430	
7	0	0	0	0	482	430	
8	0	0	0	0	481	430	
9	0	0	0	0	487	430	
10	0	0	0	0	492	430	
11	0	0	0	0	502	430	
12	0	0	0	0	504	430	
13	0	0	0	0	508	430	
14	0	0	0	0	523	430	
15	0	0	0	0	533	430	
0	0	0	0	0	527	430	
1	0	0	0	0	519	430	
2	0	0	0	0	514	430	
3	0	0	0	0	507	430	
4	0	0	0	0	494	430	
5	0	0	0	0	479	430	
6	0	0	0	0	474	430	
7	0	0	0	0	470	430	
8	0	0	0	0	466	430	
9	0	0	0	0	464	430	
10	0	0	0	0	465	430	
11	0	0	0	0	469	430	
12	0	0	0	0	464	430	
13	0	0	0	0	462	430	
14	0	0	0	0	473	430	
15	0	0	0	0	481	429	
0	0	0	0	0	486	429	
1	0	0	0	0	487	429	
2	0	0	0	0	490	430	
3	0	0	0	0	492	429	
4	0	0	0	0	501	429	
5	0	0	0	0	511	429	
6	0	0	0	0	512	430	
7	0	0	0	0	511	429	
8	0	0	0	0	514	429	
9	0	0	0	0	515	429	
10	0	0	0	0	513	429	
11	0	0	0	0	513	429	
12	0	0	0	0	510	429	
13	0	0	0	0	509	429	
14	0	0	0	0	511	429	
15	0	0	0	0	511	429	
0	0	0	0	0	508	429	
1	0	0	0	0	500	429	
2	0	0	0	0	495	429	
3	0	0	0	0	494	429	
4	0	0	0	0	495	429	
5	0	0	0	0	491	429	
6	0	0	0	0	492	429	
7	0	0	0	0	480	429	
8	0	0	0	0	467	429	
9	0	0	0	0	462	429	
10	0	0	0	0	463	429	
11	0	0	0	0	479	429	
12	0	0	0	0	492	429	
13	0	0	0	0	505	429	
14	0	0	0	0	519	429	
15	0	0	0	0	528	429	
0	0	0	0	0	541	429	
1	0	0	0	0	553	429	
2	0	0	0	0	561	429	
3	0	0	0	0	579	429	
4	0	0	0	0	591	429	
5	0	0	0	0	606	429	
6	0	0	0	0	624	429	
7	0	0	0	0	648	429	
8	0	0	0	0	677	429	
9	0	0	0	0	708	429	
10	0	0	0	0	732	429	
11	0	0	0	0	745	429	
12	0	0	0	0	755	429	
13	0	0	0	0	763	429	
14	0	0	0	0	769	429	
15	0	0	0	0	775	429	
0	0	0	0	0	778	429	
1	0	0	0	0	777	429	
2	0	0	0	0	776	429	
3	0	0	0	0	777	429	
4	0	0	0	0	784	429	
5	0	0	0	0	787	428	
6	0	0	0	0	789	429	
7	0	0	0	0	781	428	
8	0	0	0	0	764	429	
9	0	0	0	0	752	429	
10	0	0	0	0	736	428	
11	0	0	0	0	716	428	
12	0	0	0	0	699	428	
13	0	0	0	0	681	428	
14	0	0	0	0	663	428	
15	0	0	0	0	647	428	
0	0	0	0	0	636	428	
1	0	0	0	0	625	428	
2	0	0	0	0	613	428	
3	0	0	0	0	594	428	
4	0	0	0	0	574	428	
5	0	0	0	0	553	428	
6	0	0	0	0	538	428	
7	0	0	0	0	527	428	
8	0	0	0	0	516	428	
9	0	0	0	0	506	428	
10	0	0	0	0	495	428	
11	0	0	0	0	481	428	
12	0	0	0	0	470	428	
13	0	0	0	0	460	428	
14	0	0	0	0	451	428	
15	0	0	0	0	444	428	
0	0	0	0	0	440	428	
1	0	0	0	0	438	427	
2	0	0	0	0	438	428	
3	0	0	0	0	440	428	
4	0	0	0	0	442	428	
5	0	0	0	0	447	428	
6	0	0	0	0	445	428	
7	0	0	0	0	438	428	
8	0	0	0	0	432	428	
9	0	0	0	0	424	428	
10	0	0	0	0	422	428	
11	0	0	0	0	412	428	
12	0	0	0	0	408	428	
13	0	0	0	0	409	427	
14	0	0	0	0	409	428	
15	0	0	0	0	408	428	
0	0	0	0	0	406	427	
1	0	0	0	0	412	427	
2	0	0	0	0	417	427	
3	0	0	0	0	415	427	
4	0	0	0	0	411	427	
5	0	0	0	0	406	428	
6	0	0	0	0	406	427	
7	0	0	0	0	401	427	
8	0	0	0	0	397	427	
9	0	0	0	0	398	427	
10	0	0	0	0	396	427	
11	0	0	0	0	397	427	
12	0	0	0	0	398	427	
13	0	0	0	0	399	427	
14	0	0	0	0	401	427	
15	0	0	0	0	409	427	
0	0	0	0	0	415	427	
1	0	0	0	0	413	427	
2	0	0	0	0	411	427	
3	0	0	0	0	411	427	
4	0	0	0	0	419	427	
5	0	0	0	0	423	427	
6	0	0	0	0	424	427	
7	0	0	0	0	431	427	
8	0	0	0	0	441	427	
9	0	0	0	0	449	427	
10	0	0	0	0	446	427	
11	0	0	0	0	434	427	
12	0	0	0	0	428	427	
13	0	0	0	0	425	427	
14	0	0	0	0	423	427	
15	0	0	0	0	425	427	
0	0	0	0	0	435	427	
1	0	0	0	0	447	427	
2	0	0	0	0	455	427	
3	0	0	0	0	460	427	
4	0	0	0	0	465	427	
5	0	0	0	0	466	427	
6	0	0	0	0	467	427	
7	0	0	0	0	463	427	
8	0	0	0	0	461	427	
9	0	0	0	0	461	427	
10	0	0	0	0	454	427	
11	0	0	0	0	443	427	
12	0	0	0	0	432	427	
13	0	0	0	0	425	427	
14	0	0	0	0	419	427	
15	0	0	0	0	413	427	
0	0	0	0	0	411	427	
1	0	0	0	0	407	427	
2	0	0	0	0	406	427	
3	0	0	0	0	407	427	
4	0	0	0	0	407	427	
5	0	0	0	0	407	427	
6	0	0	0	0	412	427	
7	0	0	0	0	418	427	
8	0	0	0	0	424	427	
9	0	0	0	0	432	427	
10	0	0	0	0	440	427	
11	0	0	0	0	454	427	
12	0	0	0	0	464	427	
13	0	0	0	0	467	427	
14	0	0	0	0	470	427	
15	0	0	0	0	469	427	
0	0	0	0	0	468	427	
1	0	0	0	0	467	427	
2	0	0	0	0	465	427	
3	0	0	0	0	467	427	
4	0	0	0	0	467	427	
5	0	0	0	0	464	427	
6	0	0	0	0	459	427	
7	0	0	0	0	455	427	
8	0	0	0	0	460	427	
9	0	0	0	0	466	427	
10	0	0	0	0	471	427	
11	0	0	0	0	470	427	
12	0	0	0	0	469	427	
13	0	0	0	0	470	427	
14	0	0	0	0	468	427	
15	0	0	0	0	462	427	
0	0	0	0	0	454	427	
1	0	0	0	0	456	427	
2	0	0	0	0	460	427	
3	0	0	0	0	462	426	
4	0	0	0	0	470	427	
5	0	0	0	0	472	426	
6	0	0	0	0	470	427	
7	0	0	0	0	470	426	
8	0	0	0	0	461	426	
9	0	0	0	0	456	426	
10	0	0	0	0	454	426	
11	0	0	0	0	455	426	
12	0	0	0	0	460	426	
13	0	0	0	0	468	426	
14	0	0	0	0	471	426	
15	0	0	0	0	474	426	
0	0	0	0	0	475	426	
1	0	0	0	0	475	426	
2	0	0	0	0	483	426	
3	0	0	0	0	499	426	
4	0	0	0	0	507	426	
5	0	0	0	0	504	426	
6	0	0	0	0	496	426	
7	0	0	0	0	492	426	
8	0	0	0	0	494	426	
9	0	0	0	0	487	426	
10	0	0	0	0	475	426	
11	0	0	0	0	474	426	
12	0	0	0	0	472	426	
13	0	0	0	0	473	426	
14	0	0	0	0	486	426	
15	0	0	0	0	487	426	
0	0	0	0	0	486	426	
1	0	0	0	0	481	426	
2	0	0	0	0	480	426	
3	0	0	0	0	485	426	
4	0	0	0	0	486	426	
5	0	0	0	0	483	425	
6	0	0	0	0	480	426	
7	0	0	0	0	481	426	
8	0	0	0	0	493	426	
9	0	0	0	0	509	425	
10	0	0	0	0	515	425	
11	0	0	0	0	505	425	
12	0	0	0	0	498	425	
13	0	0	0	0	502	425	
14	0	0	0	0	508	425	
15	0	0	0	0	516	425	
0	0	0	0	0	522	425	
1	0	0	0	0	523	425	
2	0	0	0	0	527	425	
3	0	0	0	0	529	425	
4	0	0	0	0	519	425	
5	0	0	0	0	508	425	
6	0	0	0	0	508	425	
7	0	0	0	0	502	425	
8	0	0	0	0	500	425	
9	0	0	0	0	511	425	
10	0	0	0	0	511	425	
11	0	0	0	0	505	425	
12	0	0	0	0	505	425	
13	0	0	0	0	508	425	
14	0	0	0	0	513	425	
15	0	0	0	0	519	425	
0	0	0	0	0	526	425	
1	0	0	0	0	532	425	
2	0	0	0	0	531	425	
3	0	0	0	0	524	425	
4	0	0	0	0	516	425	
5	0	0	0	0	507	425	
6	0	0	0	0	508	425	
7	0	0	0	0	523	425	
8	0	0	0	0	536	425	
9	0	0	0	0	536	425	
10	0	0	0	0	533	425	
11	0	0	0	0	530	425	
12	0	0	0	0	520	425	
13	0	0	0	0	510	425	
14	0	0	0	0	512	425	
15	0	0	0	0	518	425	
0	0	0	0	0	528	425	
1	0	0	0	0	533	425	
2	0	0	0	0	537	424	
3	0	0	0	0	550	424	
4	0	0	0	0	555	424	
5	0	0	0	0	551	425	
6	0	0	0	0	547	425	
7	0	0	0	0	540	425	
8	0	0	0	0	535	425	
9	0	0	0	0	533	424	
10	0	0	0	0	539	424	
11	0	0	0	0	544	425	
12	0	0	0	0	554	425	
13	0	0	0	0	562	424	
14	0	0	0	0	565	424	
15	0	0	0	0	562	424	
0	0	0	0	0	555	424	
1	0	0	0	0	549	424	
2	0	0	0	0	543	424	
3	0	0	0	0	534	424	
4	0	0	0	0	524	424	
5	0	0	0	0	518	424	
6	0	0	0	0	521	424	
7	0	0	0	0	531	424	
8	0	0	0	0	536	424	
9	0	0	0	0	533	424	
10	0	0	0	0	527	424	
11	0	0	0	0	522	424	
12	0	0	0	0	519	424	
13	0	0	0	0	524	424	
14	0	0	0	0	530	424	
15	0	0	0	0	532	424	
0	0	0	0	0	537	424	
1	0	0	0	0	543	424	
2	0	0	0	0	548	423	
3	0	0	0	0	555	424	
4	0	0	0	0	544	424	
5	0	0	0	0	532	424	
6	0	0	0	0	536	423	
7	0	0	0	0	542	424	
8	0	0	0	0	541	424	
9	0	0	0	0	533	423	
10	0	0	0	0	530	423	
11	0	0	0	0	524	423	
12	0	0	0	0	521	423	
13	0	0	0	0	521	423	
14	0	0	0	0	518	424	
15	0	0	0	0	513	423	
0	0	0	0	0	517	423	
1	0	0	0	0	518	423	
2	0	0	0	0	518	423	
3	0	0	0	0	529	423	
4	0	0	0	0	540	423	
5	0	0	0	0	549	423	
6	0	0	0	0	554	423	
7	0	0	0	0	558	423	
8	0	0	0	0	558	423	
9	0	0	0	0	555	423	
10	0	0	0	0	547	423	
11	0	0	0	0	540	423	
12	0	0	0	0	535	423	
13	0	0	0	0	531	423	
14	0	0	0	0	528	423	
15	0	0	0	0	520	423	
0	0	0	0	0	516	423	
1	0	0	0	0	516	423	
2	0	0	0	0	520	423	
3	0	0	0	0	520	423	
4	0	0	0	0	521	423	
5	0	0	0	0	524	423	
6	0	0	0	0	525	423	
7	0	0	0	0	521	423	
8	0	0	0	0	515	423	
9	0	0	0	0	516	423	
10	0	0	0	0	522	423	
11	0	0	0	0	523	423	
12	0	0	0	0	520	423	
13	0	0	0	0	517	423	
14	0	0	0	0	515	423	
15	0	0	0	0	508	423	
0	0	0	0	0	500	423	
1	0	0	0	0	491	423	
2	0	0	0	0	483	423	
3	0	0	0	0	478	423	
4	0	0	0	0	473	423	
5	0	0	0	0	472	423	
6	0	0	0	0	469	423	
7	0	0	0	0	465	423	
8	0	0	0	0	469	423	
9	0	0	0	0	475	423	
10	0	0	0	0	477	423	
11	0	0	0	0	482	423	
12	0	0	0	0	484	422	
13	0	0	0	0	479	423	
14	0	0	0	0	475	423	
15	0	0	0	0	470	423	
0	0	0	0	0	469	423	
1	0	0	0	0	472	423	
2	0	0	0	0	476	423	
3	0	0	0	0	483	422	
4	0	0	0	0	487	423	
5	0	0	0	0	488	423	
6	0	0	0	0	487	422	
7	0	0	0	0	483	422	
8	0	0	0	0	481	422	
9	0	0	0	0	477	423	
10	0	0	0	0	471	422	
11	0	0	0	0	468	422	
12	0	0	0	0	470	423	
13	0	0	0	0	476	422	
14	0	0	0	0	477	422	
15	0	0	0	0	476	422	
0	0	0	0	0	466	422	
1	0	0	0	0	458	422	
2	0	0	0	0	456	422	
3	0	0	0	0	454	422	
4	0	0	0	0	454	422	
5	0	0	0	0	457	422	
6	0	0	0	0	462	422	
7	0	0	0	0	465	422	
8	0	0	0	0	472	422	
9	0	0	0	0	483	422	
10	0	0	0	0	496	422	
11	0	0	0	0	499	422	
12	0	0	0	0	489	422	
13	0	0	0	0	484	422	
14	0	0	0	0	482	422	
15	0	0	0	0	484	422	
0	0	0	0	0	484	422	
1	0	0	0	0	480	422	
2	0	0	0	0	475	422	
3	0	0	0	0	473	422	
4	0	0	0	0	474	422	
5	0	0	0	0	473	422	
6	0	0	0	0	469	422	
7	0	0	0	0	467	422	
8	0	0	0	0	466	422	
9	0	0	0	0	462	422	
10	0	0	0	0	465	422	
11	0	0	0	0	463	422	
12	0	0	0	0	460	422	
13	0	0	0	0	461	422	
14	0	0	0	0	463	422	
15	0	0	0	0	467	422	
0	0	0	0	0	471	422	
1	0	0	0	0	468	422	
2	0	0	0	0	462	422	
3	0	0	0	0	464	422	
4	0	0	0	0	472	422	
5	0	0	0	0	483	422	
6	0	0	0	0	489	422	
7	0	0	0	0	483	422	
8	0	0	0	0	476	422	
9	0	0	0	0	477	422	
10	0	0	0	0	476	422	
11	0	0	0	0	473	422	
12	0	0	0	0	475	422	
13	0	0	0	0	479	422	
14	0	0	0	0	478	422	
15	0	0	0	0	478	422	
0	0	0	0	0	475	422	
1	0	0	0	0	473	421	
2	0	0	0	0	473	422	
3	0	0	0	0	472	422	
4	0	0	0	0	474	422	
5	0	0	0	0	483	422	
6	0	0	0	0	494	422	
7	0	0	0	0	497	422	
8	0	0	0	0	495	422	
9	0	0	0	0	492	422	
10	0	0	0	0	486	422	
11	0	0	0	0	484	422	
12	0	0	0	0	481	421	
13	0	0	0	0	473	422	
14	0	0	0	0	473	422	
15	0	0	0	0	479	422	
0	0	0	0	0	476	422	
1	0	0	0	0	468	422	
2	0	0	0	0	464	422	
3	0	0	0	0	466	422	
4	0	0	0	0	468	422	
5	0	0	0	0	469	422	
6	0	0	0	0	476	422	
7	0	0	0	0	484	422	
8	0	0	0	0	497	422	
9	0	0	0	0	508	422	
10	0	0	0	0	509	422	
11	0	0	0	0	511	422	
12	0	0	0	0	514	422	
13	0	0	0	0	516	422	
14	0	0	0	0	513	422	
15	0	0	0	0	512	422	
0	0	0	0	0	513	422	
1	0	0	0	0	512	422	
2	0	0	0	0	502	422	
3	0	0	0	0	500	422	
4	0	0	0	0	495	422	
5	0	0	0	0	492	422	
6	0	0	0	0	494	422	
7	0	0	0	0	493	422	
8	0	0	0	0	496	422	
9	0	0	0	0	503	422	
10	0	0	0	0	507	422	
11	0	0	0	0	507	422	
12	0	0	0	0	505	422	
13	0	0	0	0	498	422	
14	0	0	0	0	494	422	
15	0	0	0	0	491	422	
0	0	0	0	0	492	422	
1	0	0	0	0	494	422	
2	0	0	0	0	496	422	
3	0	0	0	0	493	422	
4	0	0	0	0	491	422	
5	0	0	0	0	486	422	
6	0	0	0	0	487	422	
7	0	0	0	0	492	422	
8	0	0	0	0	496	423	
9	0	0	0	0	493	422	
10	0	0	0	0	496	422	
11	0	0	0	0	494	423	
12	0	0	0	0	493	423	
13	0	0	0	0	499	422	
14	0	0	0	0	495	422	
15	0	0	0	0	482	423	
0	0	0	0	0	481	423	
1	0	0	0	0	481	422	
2	0	0	0	0	480	423	
3	0	0	0	0	484	423	
4	0	0	0	0	492	423	
5	0	0	0	0	492	423	
6	0	0	0	0	491	423	
7	0	0	0	0	495	423	
8	0	0	0	0	500	423	
9	0	0	0	0	500	423	
10	0	0	0	0	500	423	
11	0	0	0	0	497	423	
12	0	0	0	0	492	423	
13	0	0	0	0	483	423	
14	0	0	0	0	480	423	
15	0	0	0	0	479	423	
0	0	0	0	0	482	423	
1	0	0	0	0	492	423	
2	0	0	0	0	498	423	
3	0	0	0	0	508	423	
4	0	0	0	0	517	423	
5	0	0	0	0	515	423	
6	0	0	0	0	509	423	
7	0	0	0	0	497	423	
8	0	0	0	0	492	423	
9	0	0	0	0	489	423	
10	0	0	0	0	496	423	
11	0	0	0	0	511	423	
12	0	0	0	0	518	423	
13	0	0	0	0	516	423	
14	0	0	0	0	517	423	
15	0	0	0	0	512	423	
0	0	0	0	0	513	424	
1	0	0	0	0	515	423	
2	0	0	0	0	512	424	
3	0	0	0	0	510	423	
4	0	0	0	0	508	424	
5	0	0	0	0	509	424	
6	0	0	0	0	508	424	
7	0	0	0	0	508	424	
8	0	0	0	0	510	424	
9	0	0	0	0	513	424	
10	0	0	0	0	519	424	
11	0	0	0	0	516	424	
12	0	0	0	0	512	424	
13	0	0	0	0	511	424	
14	0	0	0	0	506	424	
15	0	0	0	0	498	424	
0	0	0	0	0	491	424	
1	0	0	0	0	486	424	
2	0	0	0	0	483	424	
3	0	0	0	0	480	424	
4	0	0	0	0	478	425	
5	0	0	0	0	475	424	
6	0	0	0	0	480	424	
7	0	0	0	0	495	425	
8	0	0	0	0	499	425	
9	0	0	0	0	499	425	
10	0	0	0	0	504	425	
11	0	0	0	0	506	425	
12	0	0	0	0	511	425	
13	0	0	0	0	514	425	
14	0	0	0	0	512	425	
15	0	0	0	0	509	425	
0	0	0	0	0	506	425	
1	0	0	0	0	507	425	
2	0	0	0	0	512	425	
3	0	0	0	0	518	425	
4	0	0	0	0	512	425	
5	0	0	0	0	511	425	
6	0	0	0	0	504	425	
7	0	0	0	0	497	426	
8	0	0	0	0	498	426	
9	0	0	0	0	496	426	
10	0	0	0	0	488	426	
11	0	0	0	0	484	426	
12	0	0	0	0	477	426	
13	0	0	0	0	473	426	
14	0	0	0	0	476	426	
15	0	0	0	0	484	426	
0	0	0	0	0	487	426	
1	0	0	0	0	490	426	
2	0	0	0	0	493	426	
3	0	0	0	0	496	426	
4	0	0	0	0	503	426	
5	0	0	0	0	508	427	
6	0	0	0	0	507	427	
7	0	0	0	0	509	427	
8	0	0	0	0	508	426	
9	0	0	0	0	508	427	
10	0	0	0	0	505	427	
11	0	0	0	0	496	427	
12	0	0	0	0	488	427	
13	0	0	0	0	491	427	
14	0	0	0	0	499	427	
15	0	0	0	0	502	427	
0	0	0	0	0	499	427	
1	0	0	0	0	493	427	
2	0	0	0	0	499	427	
3	0	0	0	0	510	427	
4	0	0	0	0	511	427	
5	0	0	0	0	505	427	
6	0	0	0	0	496	427	
7	0	0	0	0	498	427	
8	0	0	0	0	503	427	
9	0	0	0	0	505	427	
10	0	0	0	0	501	427	
11	0	0	0	0	505	427	
12	0	0	0	0	511	427	
13	0	0	0	0	516	427	
14	0	0	0	0	519	428	
15	0	0	0	0	520	428	
0	0	0	0	0	515	428	
1	0	0	0	0	503	427	
2	0	0	0	0	496	428	
3	0	0	0	0	496	428	
4	0	0	0	0	497	427	
5	0	0	0	0	494	428	
6	0	0	0	0	492	428	
7	0	0	0	0	486	428	
8	0	0	0	0	482	428	
9	0	0	0	0	491	428	
10	0	0	0	0	504	428	
11	0	0	0	0	508	428	
12	0	0	0	0	516	428	
13	0	0	0	0	525	428	
14	0	0	0	0	524	428	
15	0	0	0	0	513	428	
0	0	0	0	0	503	428	
1	0	0	0	0	501	428	
2	0	0	0	0	499	428	
3	0	0	0	0	499	428	
4	0	0	0	0	496	428	
5	0	0	0	0	493	428	
6	0	0	0	0	494	428	
7	0	0	0	0	497	428	
8	0	0	0	0	500	428	
9	0	0	0	0	493	428	
10	0	0	0	0	493	428	
11	0	0	0	0	499	428	
12	0	0	0	0	498	428	
13	0	0	0	0	505	428	
14	0	0	0	0	510	428	
15	0	0	0	0	509	428	
0	0	0	0	0	511	428	
1	0	0	0	0	514	428	
2	0	0	0	0	510	428	
3	0	0	0	0	497	428	
4	0	0	0	0	485	428	
5	0	0	0	0	487	428	
6	0	0	0	0	497	428	
7	0	0	0	0	505	428	
8	0	0	0	0	513	428	
9	0	0	0	0	510	428	
10	0	0	0	0	506	428	
11	0	0	0	0	510	428	
12	0	0	0	0	514	428	
13	0	0	0	0	523	428	
14	0	0	0	0	522	428	
15	0	0	0	0	516	428	
0	0	0	0	0	514	428	
1	0	0	0	0	515	428	
2	0	0	0	0	517	429	
3	0	0	0	0	521	428	
4	0	0	0	0	523	428	
5	0	0	0	0	522	429	
6	0	0	0	0	517	428	
7	0	0	0	0	510	429	
8	0	0	0	0	506	428	
9	0	0	0	0	505	428	
10	0	0	0	0	513	428	
11	0	0	0	0	520	428	
12	0	0	0	0	521	429	
13	0	0	0	0	519	428	
14	0	0	0	0	515	429	
15	0	0	0	0	512	428	
0	0	0	0	0	514	429	
1	0	0	0	0	514	429	
2	0	0	0	0	513	428	
3	0	0	0	0	515	428	
4	0	0	0	0	519	429	
5	0	0	0	0	518	429	
6	0	0	0	0	512	429	
7	0	0	0	0	510	429	
8	0	0	0	0	512	429	
9	0	0	0	0	520	429	
10	0	0	0	0	531	428	
11	0	0	0	0	533	428	
12	0	0	0	0	533	428	
13	0	0	0	0	525	429	
14	0	0	0	0	522	429	
15	0	0	0	0	518	429	
0	0	0	0	0	509	428	
1	0	0	0	0	507	428	
2	0	0	0	0	502	429	
3	0	0	0	0	507	428	
4	0	0	0	0	518	428	
5	0	0	0	0	527	428	
6	0	0	0	0	529	428	
7	0	0	0	0	528	429	
8	0	0	0	0	527	428	
9	0	0	0	0	524	429	
10	0	0	0	0	514	428	
11	0	0	0	0	507	428	
12	0	0	0	0	506	428	
13	0	0	0	0	512	428	
14	0	0	0	0	517	429	
15	0	0	0	0	517	429	
0	0	0	0	0	516	428	
1	0	0	0	0	514	428	
2	0	0	0	0	508	428	
3	0	0	0	0	498	428	
4	0	0	0	0	501	429	
5	0	0	0	0	504	428	
6	0	0	0	0	502	428	
7	0	0	0	0	503	428	
8	0	0	0	0	503	428	
9	0	0	0	0	505	428	
10	0	0	0	0	504	428	
11	0	0	0	0	504	428	
12	0	0	0	0	508	428	
13	0	0	0	0	515	428	
14	0	0	0	0	519	429	
15	0	0	0	0	514	428	
0	0	0	0	0	504	428	
1	0	0	0	0	499	428	
2	0	0	0	0	496	428	
3	0	0	0	0	494	428	
4	0	0	0	0	494	428	
5	0	0	0	0	489	428	
6	0	0	0	0	483	428	
7	0	0	0	0	487	428	
8	0	0	0	0	498	428	
9	0	0	0	0	512	428	
10	0	0	0	0	518	428	
11	0	0	0	0	516	428	
12	0	0	0	0	517	428	
13	0	0	0	0	515	428	
14	0	0	0	0	515	428	
15	0	0	0	0	517	428	
0	0	0	0	0	520	428	
1	0	0	0	0	518	428	
2	0	0	0	0	524	428	
3	0	0	0	0	524	428	
4	0	0	0	0	522	428	
5	0	0	0	0	517	428	
6	0	0	0	0	524	428	
7	0	0	0	0	535	428	
8	0	0	0	0	541	428	
9	0	0	0	0	537	428	
10	0	0	0	0	529	428	
11	0	0	0	0	527	428	
12	0	0	0	0	524	428	
13	0	0	0	0	523	428	
14	0	0	0	0	518	428	
15	0	0	0	0	510	428	
0	0	0	0	0	508	428	
1	0	0	0	0	505	428	
2	0	0	0	0	506	428	
3	0	0	0	0	510	428	
4	0	0	0	0	518	428	
5	0	0	0	0	531	428	
6	0	0	0	0	540	428	
7	0	0	0	0	536	428	
8	0	0	0	0	533	428	
9	0	0	0	0	532	428	
10	0	0	0	0	532	428	
11	0	0	0	0	529	428	
12	0	0	0	0	527	428	
13	0	0	0	0	527	428	
14	0	0	0	0	526	428	
15	0	0	0	0	527	428	
0	0	0	0	0	531	428	
1	0	0	0	0	539	428	
2	0	0	0	0	545	428	
3	0	0	0	0	545	428	
4	0	0	0	0	547	428	
5	0	0	0	0	546	428	
6	0	0	0	0	539	428	
7	0	0	0	0	529	428	
8	0	0	0	0	518	428	
9	0	0	0	0	514	428	
10	0	0	0	0	514	428	
11	0	0	0	0	519	428	
12	0	0	0	0	532	428	
13	0	0	0	0	544	428	
14	0	0	0	0	553	428	
15	0	0	0	0	550	428	
0	0	0	0	0	549	428	
1	0	0	0	0	550	428	
2	0	0	0	0	547	428	
3	0	0	0	0	545	428	
4	0	0	0	0	538	428	
5	0	0	0	0	527	428	
6	0	0	0	0	514	428	
7	0	0	0	0	512	428	
8	0	0	0	0	512	428	
9	0	0	0	0	510	428	
10	0	0	0	0	513	428	
11	0	0	0	0	519	428	
12	0	0	0	0	526	427	
13	0	0	0	0	531	428	
14	0	0	0	0	530	428	
15	0	0	0	0	533	427	
0	0	0	0	0	536	428	
1	0	0	0	0	537	428	
2	0	0	0	0	538	428	
3	0	0	0	0	538	428	
4	0	0	0	0	534	428	
5	0	0	0	0	529	427	
6	0	0	0	0	526	427	
7	0	0	0	0	527	427	
8	0	0	0	0	530	428	
9	0	0	0	0	522	427	
10	0	0	0	0	511	427	
11	0	0	0	0	498	427	
12	0	0	0	0	487	427	
13	0	0	0	0	490	427	
14	0	0	0	0	496	427	
15	0	0	0	0	502	427	
0	0	0	0	0	513	427	
1	0	0	0	0	519	427	
2	0	0	0	0	512	427	
3	0	0	0	0	504	427	
4	0	0	0	0	493	427	
5	0	0	0	0	478	427	
6	0	0	0	0	466	427	
7	0	0	0	0	461	427	
8	0	0	0	0	468	427	
9	0	0	0	0	483	427	
10	0	0	0	0	495	427	
11	0	0	0	0	505	427	
12	0	0	0	0	511	427	
13	0	0	0	0	512	427	
14	0	0	0	0	512	427	
15	0	0	0	0	505	427	
0	0	0	0	0	500	427	
1	0	0	0	0	498	427	
2	0	0	0	0	499	427	
3	0	0	0	0	492	427	
4	0	0	0	0	489	427	
5	0	0	0	0	496	427	
6	0	0	0	0	505	427	
7	0	0	0	0	511	427	
8	0	0	0	0	514	427	
9	0	0	0	0	511	427	
10	0	0	0	0	511	427	
11	0	0	0	0	516	427	
12	0	0	0	0	519	427	
13	0	0	0	0	522	427	
14	0	0	0	0	523	427	
15	0	0	0	0	524	427	
0	0	0	0	0	514	427	
1	0	0	0	0	502	427	
2	0	0	0	0	489	427	
3	0	0	0	0	480	427	
4	0	0	0	0	475	427	
5	0	0	0	0	475	427	
6	0	0	0	0	478	427	
7	0	0	0	0	480	427	
8	0	0	0	0	480	427	
9	0	0	0	0	477	427	
10	0	0	0	0	471	427	
11	0	0	0	0	463	427	
12	0	0	0	0	458	427	
13	0	0	0	0	454	427	
14	0	0	0	0	455	427	
15	0	0	0	0	463	427	
0	0	0	0	0	477	427	
1	0	0	0	0	489	427	
2	0	0	0	0	495	427	
3	0	0	0	0	504	427	
4	0	0	0	0	513	427	
5	0	0	0	0	519	427	
6	0	0	0	0	518	427	
7	0	0	0	0	515	427	
8	0	0	0	0	519	427	
9	0	0	0	0	519	427	
10	0	0	0	0	523	427	
11	0	0	0	0	529	427	
12	0	0	0	0	531	427	
13	0	0	0	0	529	427	
14	0	0	0	0	528	427	
15	0	0	0	0	531	427	
0	0	0	0	0	531	427	
1	0	0	0	0	531	427	
2	0	0	0	0	537	427	
3	0	0	0	0	537	427	
4	0	0	0	0	536	427	
5	0	0	0	0	531	427	
6	0	0	0	0	519	426	
7	0	0	0	0	518	427	
8	0	0	0	0	521	427	
9	0	0	0	0	525	427	
10	0	0	0	0	529	427	
11	0	0	0	0	536	427	
12	0	0	0	0	553	427	
13	0	0	0	0	564	427	
14	0	0	0	0	569	426	
15	0	0	0	0	576	427	
0	0	0	0	0	601	427	
1	0	0	0	0	622	427	
2	0	0	0	0	646	427	
3	0	0	0	0	673	427	
4	0	0	0	0	695	427	
5	0	0	0	0	706	427	
6	0	0	0	0	715	427	
7	0	0	0	0	729	427	
8	0	0	0	0	747	427	
9	0	0	0	0	763	427	
10	0	0	0	0	779	427	
11	0	0	0	0	792	426	
12	0	0	0	0	801	427	
13	0	0	0	0	803	427	
14	0	0	0	0	804	427	
15	0	0	0	0	807	427	
0	0	0	0	0	807	426	
1	0	0	0	0	809	427	
2	0	0	0	0	804	426	
3	0	0	0	0	787	426	
4	0	0	0	0	775	426	
5	0	0	0	0	766	426	
6	0	0	0	0	756	426	
7	0	0	0	0	745	426	
8	0	0	0	0	737	426	
9	0	0	0	0	723	426	
10	0	0	0	0	703	426	
11	0	0	0	0	682	426	
12	0	0	0	0	661	426	
13	0	0	0	0	642	426	
14	0	0	0	0	628	426	
15	0	0	0	0	620	426	
0	0	0	0	0	609	426	
1	0	0	0	0	602	426	
2	0	0	0	0	584	426	
3	0	0	0	0	568	426	
4	0	0	0	0	558	426	
5	0	0	0	0	551	426	
6	0	0	0	0	541	426	
7	0	0	0	0	530	426	
8	0	0	0	0	518	426	
9	0	0	0	0	504	426	
10	0	0	0	0	487	426	
11	0	0	0	0	470	426	
12	0	0	0	0	455	425	
13	0	0	0	0	439	425	
14	0	0	0	0	440	426	
15	0	0	0	0	441	426	
0	0	0	0	0	436	425	
1	0	0	0	0	425	426	
2	0	0	0	0	418	425	
3	0	0	0	0	422	425	
4	0	0	0	0	425	426	
5	0	0	0	0	426	425	
6	0	0	0	0	430	425	
7	0	0	0	0	429	425	
8	0	0	0	0	421	425	
9	0	0	0	0	417	425	
10	0	0	0	0	410	425	
11	0	0	0	0	405	425	
12	0	0	0	0	400	425	
13	0	0	0	0	399	425	
14	0	0	0	0	406	426	
15	0	0	0	0	403	425	
0	0	0	0	0	401	425	
1	0	0	0	0	408	425	
2	0	0	0	0	421	425	
3	0	0	0	0	424	426	
4	0	0	0	0	430	425	
5	0	0	0	0	435	425	
6	0	0	0	0	435	425	
7	0	0	0	0	427	425	
8	0	0	0	0	423	425	
9	0	0	0	0	427	425	
10	0	0	0	0	427	425	
11	0	0	0	0	423	425	
12	0	0	0	0	418	425	
13	0	0	0	0	403	425	
14	0	0	0	0	397	425	
15	0	0	0	0	399	425	
0	0	0	0	0	411	425	
1	0	0	0	0	428	425	
2	0	0	0	0	442	425	
3	0	0	0	0	443	425	
4	0	0	0	0	441	425	
5	0	0	0	0	433	425	
6	0	0	0	0	423	425	
7	0	0	0	0	419	425	
8	0	0	0	0	417	425	
9	0	0	0	0	415	425	
10	0	0	0	0	416	425	
11	0	0	0	0	421	425	
12	0	0	0	0	433	425	
13	0	0	0	0	440	425	
14	0	0	0	0	440	425	
15	0	0	0	0	443	425	
0	0	0	0	0	453	425	
1	0	0	0	0	455	425	
2	0	0	0	0	456	425	
3	0	0	0	0	460	425	
4	0	0	0	0	463	425	
5	0	0	0	0	463	425	
6	0	0	0	0	466	425	
7	0	0	0	0	472	425	
8	0	0	0	0	472	425	
9	0	0	0	0	468	425	
10	0	0	0	0	460	425	
11	0	0	0	0	455	425	
12	0	0	0	0	452	425	
13	0	0	0	0	449	425	
14	0	0	0	0	446	425	
15	0	0	0	0	448	424	
0	0	0	0	0	451	425	
1	0	0	0	0	453	425	
2	0	0	0	0	455	425	
3	0	0	0	0	454	425	
4	0	0	0	0	452	425	
5	0	0	0	0	456	425	
6	0	0	0	0	460	424	
7	0	0	0	0	464	425	
8	0	0	0	0	471	425	
9	0	0	0	0	475	425	
10	0	0	0	0	472	425	
11	0	0	0	0	470	424	
12	0	0	0	0	466	425	
13	0	0	0	0	467	425	
14	0	0	0	0	475	425	
15	0	0	0	0	479	425	
0	0	0	0	0	478	424	
1	0	0	0	0	477	424	
2	0	0	0	0	476	424	
3	0	0	0	0	480	424	
4	0	0	0	0	484	425	
5	0	0	0	0	488	424	
6	0	0	0	0	488	424	
7	0	0	0	0	488	424	
8	0	0	0	0	488	424	
9	0	0	0	0	493	425	
10	0	0	0	0	499	424	
11	0	0	0	0	506	424	
12	0	0	0	0	507	424	
13	0	0	0	0	504	424	
14	0	0	0	0	496	425	
15	0	0	0	0	491	424	
0	0	0	0	0	487	424	
1	0	0	0	0	483	424	
2	0	0	0	0	484	424	
3	0	0	0	0	489	424	
4	0	0	0	0	489	424	
5	0	0	0	0	484	424	
6	0	0	0	0	476	424	
7	0	0	0	0	463	424	
8	0	0	0	0	458	424	
9	0	0	0	0	458	424	
10	0	0	0	0	458	424	
11	0	0	0	0	462	424	
12	0	0	0	0	471	424	
13	0	0	0	0	481	424	
14	0	0	0	0	492	424	
15	0	0	0	0	501	424	
0	0	0	0	0	507	424	
1	0	0	0	0	510	424	
2	0	0	0	0	509	424	
3	0	0	0	0	509	424	
4	0	0	0	0	507	424	
5	0	0	0	0	499	424	
6	0	0	0	0	494	424	
7	0	0	0	0	491	424	
8	0	0	0	0	489	424	
9	0	0	0	0	485	424	
10	0	0	0	0	480	424	
11	0	0	0	0	484	424	
12	0	0	0	0	492	424	
13	0	0	0	0	486	424	
14	0	0	0	0	482	424	
15	0	0	0	0	483	424	
0	0	0	0	0	486	424	
1	0	0	0	0	490	424	
2	0	0	0	0	496	424	
3	0	0	0	0	500	424	
4	0	0	0	0	506	424	
5	0	0	0	0	510	424	
6	0	0	0	0	516	424	
7	0	0	0	0	522	424	
8	0	0	0	0	521	424	
9	0	0	0	0	523	424	
10	0	0	0	0	526	424	
11	0	0	0	0	534	424	
12	0	0	0	0	538	424	
13	0	0	0	0	533	424	
14	0	0	0	0	528	424	
15	0	0	0	0	524	423	
0	0	0	0	0	521	424	
1	0	0	0	0	517	424	
2	0	0	0	0	511	424	
3	0	0	0	0	509	424	
4	0	0	0	0	510	423	
5	0	0	0	0	515	424	
6	0	0	0	0	521	423	
7	0	0	0	0	523	424	
8	0	0	0	0	527	423	
9	0	0	0	0	528	424	
10	0	0	0	0	526	423	
11	0	0	0	0	527	423	
12	0	0	0	0	526	423	
13	0	0	0	0	524	423	
14	0	0	0	0	516	423	
15	0	0	0	0	511	423	
0	0	0	0	0	514	423	
1	0	0	0	0	520	423	
2	0	0	0	0	525	423	
3	0	0	0	0	527	423	
4	0	0	0	0	528	423	
5	0	0	0	0	530	423	
6	0	0	0	0	527	423	
7	0	0	0	0	525	423	
8	0	0	0	0	530	423	
9	0	0	0	0	539	423	
10	0	0	0	0	543	423	
11	0	0	0	0	545	423	
12	0	0	0	0	545	423	
13	0	0	0	0	545	423	
14	0	0	0	0	543	423	
15	0	0	0	0	540	423	
0	0	0	0	0	535	423	
1	0	0	0	0	530	423	
2	0	0	0	0	531	423	
3	0	0	0	0	539	423	
4	0	0	0	0	548	423	
5	0	0	0	0	550	423	
6	0	0	0	0	547	423	
7	0	0	0	0	539	423	
8	0	0	0	0	532	423	
9	0	0	0	0	530	423	
10	0	0	0	0	530	423	
11	0	0	0	0	535	423	
12	0	0	0	0	539	423	
13	0	0	0	0	533	423	
14	0	0	0	0	528	423	
15	0	0	0	0	530	423	
0	0	0	0	0	540	423	
1	0	0	0	0	551	423	
2	0	0	0	0	553	423	
3	0	0	0	0	560	423	
4	0	0	0	0	562	423	
5	0	0	0	0	564	423	
6	0	0	0	0	563	423	
7	0	0	0	0	554	423	
8	0	0	0	0	539	423	
9	0	0	0	0	531	423	
10	0	0	0	0	528	423	
11	0	0	0	0	532	423	
12	0	0	0	0	530	423	
13	0	0	0	0	528	423	
14	0	0	0	0	527	423	
15	0	0	0	0	527	423	
0	0	0	0	0	527	423	
1	0	0	0	0	524	423	
2	0	0	0	0	525	423	
3	0	0	0	0	523	423	
4	0	0	0	0	519	423	
5	0	0	0	0	517	423	
6	0	0	0	0	525	423	
7	0	0	0	0	533	423	
8	0	0	0	0	534	423	
9	0	0	0	0	527	423	
10	0	0	0	0	523	423	
11	0	0	0	0	526	423	
12	0	0	0	0	529	423	
13	0	0	0	0	532	423	
14	0	0	0	0	534	423	
15	0	0	0	0	535	423	
0	0	0	0	0	536	423	
1	0	0	0	0	544	423	
2	0	0	0	0	547	423	
3	0	0	0	0	549	423	
4	0	0	0	0	549	423	
5	0	0	0	0	550	423	
6	0	0	0	0	543	422	
7	0	0	0	0	537	423	
8	0	0	0	0	541	423	
9	0	0	0	0	536	423	
10	0	0	0	0	530	423	
11	0	0	0	0	529	423	
12	0	0	0	0	525	423	
13	0	0	0	0	531	423	
14	0	0	0	0	547	423	
15	0	0	0	0	557	423	
0	0	0	0	0	561	422	
1	0	0	0	0	562	422	
2	0	0	0	0	555	422	
3	0	0	0	0	542	423	
4	0	0	0	0	527	423	
5	0	0	0	0	513	422	
6	0	0	0	0	501	423	
7	0	0	0	0	489	422	
8	0	0	0	0	481	422	
9	0	0	0	0	483	423	
10	0	0	0	0	486	422	
11	0	0	0	0	488	422	
12	0	0	0	0	488	422	
13	0	0	0	0	491	422	
14	0	0	0	0	499	423	
15	0	0	0	0	512	422	
0	0	0	0	0	513	422	
1	0	0	0	0	511	422	
2	0	0	0	0	505	422	
3	0	0	0	0	505	422	
4	0	0	0	0	504	422	
5	0	0	0	0	505	422	
6	0	0	0	0	503	422	
7	0	0	0	0	501	422	
8	0	0	0	0	502	422	
9	0	0	0	0	503	422	
10	0	0	0	0	502	422	
11	0	0	0	0	492	422	
12	0	0	0	0	485	422	
13	0	0	0	0	481	422	
14	0	0	0	0	481	422	
15	0	0	0	0	479	422	
0	0	0	0	0	480	422	
1	0	0	0	0	485	422	
2	0	0	0	0	490	422	
3	0	0	0	0	492	422	
4	0	0	0	0	483	422	
5	0	0	0	0	472	422	
6	0	0	0	0	466	422	
7	0	0	0	0	467	422	
8	0	0	0	0	470	422	
9	0	0	0	0	473	422	
10	0	0	0	0	476	422	
11	0	0	0	0	480	422	
12	0	0	0	0	484	422	
13	0	0	0	0	480	422	
14	0	0	0	0	472	422	
15	0	0	0	0	470	422	
0	0	0	0	0	470	422	
1	0	0	0	0	468	422	
2	0	0	0	0	462	422	
3	0	0	0	0	457	422	
4	0	0	0	0	455	421	
5	0	0	0	0	462	422	
6	0	0	0	0	466	422	
7	0	0	0	0	467	422	
8	0	0	0	0	466	422	
9	0	0	0	0	467	422	
10	0	0	0	0	465	421	
11	0	0	0	0	459	422	
12	0	0	0	0	454	421	
13	0	0	0	0	455	421	
14	0	0	0	0	461	422	
15	0	0	0	0	465	422	
0	0	0	0	0	469	421	
1	0	0	0	0	474	421	
2	0	0	0	0	480	422	
3	0	0	0	0	484	422	
4	0	0	0	0	489	421	
5	0	0	0	0	497	422	
6	0	0	0	0	500	422	
7	0	0	0	0	503	421	
8	0	0	0	0	499	421	
9	0	0	0	0	490	421	
10	0	0	0	0	487	422	
11	0	0	0	0	488	421	
12	0	0	0	0	493	421	
13	0	0	0	0	492	422	
14	0	0	0	0	488	421	
15	0	0	0	0	487	422	
0	0	0	0	0	487	421	
1	0	0	0	0	487	421	
2	0	0	0	0	485	421	
3	0	0	0	0	481	421	
4	0	0	0	0	473	422	
5	0	0	0	0	468	421	
6	0	0	0	0	473	421	
7	0	0	0	0	486	421	
8	0	0	0	0	498	421	
9	0	0	0	0	506	421	
10	0	0	0	0	516	421	
11	0	0	0	0	516	421	
12	0	0	0	0	513	421	
13	0	0	0	0	512	421	
14	0	0	0	0	508	421	
15	0	0	0	0	507	421	
0	0	0	0	0	499	421	
1	0	0	0	0	495	421	
2	0	0	0	0	488	421	
3	0	0	0	0	480	422	
4	0	0	0	0	480	421	
5	0	0	0	0	483	421	
6	0	0	0	0	490	421	
7	0	0	0	0	494	421	
8	0	0	0	0	498	421	
9	0	0	0	0	505	421	
10	0	0	0	0	512	421	
11	0	0	0	0	517	421	
12	0	0	0	0	517	421	
13	0	0	0	0	517	421	
14	0	0	0	0	515	421	
15	0	0	0	0	511	421	
0	0	0	0	0	502	421	
1	0	0	0	0	488	421	
2	0	0	0	0	482	421	
3	0	0	0	0	482	421	
4	0	0	0	0	481	421	
5	0	0	0	0	476	421	
6	0	0	0	0	474	421	
7	0	0	0	0	479	421	
8	0	0	0	0	490	421	
9	0	0	0	0	496	421	
10	0	0	0	0	495	421	
11	0	0	0	0	494	421	
12	0	0	0	0	498	421	
13	0	0	0	0	501	421	
14	0	0	0	0	507	421	
15	0	0	0	0	511	421	
0	0	0	0	0	510	421	
1	0	0	0	0	504	421	
2	0	0	0	0	498	421	
3	0	0	0	0	504	421	
4	0	0	0	0	508	421	
5	0	0	0	0	510	420	
6	0	0	0	0	510	421	
7	0	0	0	0	509	421	
8	0	0	0	0	514	421	
9	0	0	0	0	511	421	
10	0	0	0	0	507	420	
11	0	0	0	0	504	420	
12	0	0	0	0	507	420	
13	0	0	0	0	513	420	
14	0	0	0	0	519	420	
15	0	0	0	0	524	420	
0	0	0	0	0	520	420	
1	0	0	0	0	515	420	
2	0	0	0	0	505	420	
3	0	0	0	0	496	420	
4	0	0	0	0	492	420	
5	0	0	0	0	492	420	
6	0	0	0	0	504	420	
7	0	0	0	0	515	420	
8	0	0	0	0	522	420	
9	0	0	0	0	525	420	
10	0	0	0	0	524	420	
11	0	0	0	0	523	420	
12	0	0	0	0	519	420	
13	0	0	0	0	516	420	
14	0	0	0	0	508	420	
15	0	0	0	0	501	420	
0	0	0	0	0	492	420	
1	0	0	0	0	481	420	
2	0	0	0	0	467	420	
3	0	0	0	0	454	420	
4	0	0	0	0	444	420	
5	0	0	0	0	444	420	
6	0	0	0	0	447	420	
7	0	0	0	0	456	420	
8	0	0	0	0	476	420	
9	0	0	0	0	495	420	
10	0	0	0	0	507	420	
11	0	0	0	0	508	420	
12	0	0	0	0	511	420	
13	0	0	0	0	519	420	
14	0	0	0	0	528	420	
15	0	0	0	0	531	420	
0	0	0	0	0	531	420	
1	0	0	0	0	529	420	
2	0	0	0	0	527	420	
3	0	0	0	0	529	420	
4	0	0	0	0	529	420	
5	0	0	0	0	524	420	
6	0	0	0	0	522	420	
7	0	0	0	0	518	420	
8	0	0	0	0	511	420	
9	0	0	0	0	508	420	
10	0	0	0	0	507	420	
11	0	0	0	0	504	420	
12	0	0	0	0	497	420	
13	0	0	0	0	501	420	
14	0	0	0	0	506	420	
15	0	0	0	0	505	420	
0	0	0	0	0	502	420	
1	0	0	0	0	495	420	
2	0	0	0	0	491	420	
3	0	0	0	0	488	420	
4	0	0	0	0	492	420	
5	0	0	0	0	500	420	
6	0	0	0	0	501	420	
7	0	0	0	0	491	420	
8	0	0	0	0	479	420	
9	0	0	0	0	478	420	
10	0	0	0	0	490	420	
11	0	0	0	0	497	420	
12	0	0	0	0	498	420	
13	0	0	0	0	500	420	
14	0	0	0	0	503	420	
15	0	0	0	0	506	420	
0	0	0	0	0	512	420	
1	0	0	0	0	518	420	
2	0	0	0	0	522	420	
3	0	0	0	0	527	420	
4	0	0	0	0	531	420	
5	0	0	0	0	524	420	
6	0	0	0	0	519	420	
7	0	0	0	0	516	420	
8	0	0	0	0	517	420	
9	0	0	0	0	522	420	
10	0	0	0	0	517	420	
11	0	0	0	0	512	420	
12	0	0	0	0	507	420	
13	0	0	0	0	501	420	
14	0	0	0	0	502	420	
15	0	0	0	0	508	420	
0	0	0	0	0	513	420	
1	0	0	0	0	519	420	
2	0	0	0	0	531	420	
3	0	0	0	0	536	420	
4	0	0	0	0	532	420	
5	0	0	0	0	521	420	
6	0	0	0	0	500	419	
7	0	0	0	0	492	419	
8	0	0	0	0	501	420	
9	0	0	0	0	511	420	
10	0	0	0	0	512	420	
11	0	0	0	0	515	420	
12	0	0	0	0	524	420	
13	0	0	0	0	525	419	
14	0	0	0	0	514	420	
15	0	0	0	0	505	420	
0	0	0	0	0	507	419	
1	0	0	0	0	508	419	
2	0	0	0	0	505	420	
3	0	0	0	0	504	420	
4	0	0	0	0	505	420	
5	0	0	0	0	501	419	
6	0	0	0	0	503	420	
7	0	0	0	0	508	420	
8	0	0	0	0	509	420	
9	0	0	0	0	508	420	
10	0	0	0	0	505	419	
11	0	0	0	0	506	420	
12	0	0	0	0	505	419	
13	0	0	0	0	506	420	
14	0	0	0	0	503	420	
15	0	0	0	0	500	420	
0	0	0	0	0	502	420	
1	0	0	0	0	503	419	
2	0	0	0	0	502	419	
3	0	0	0	0	502	420	
4	0	0	0	0	511	419	
5	0	0	0	0	519	420	
6	0	0	0	0	514	420	
7	0	0	0	0	511	420	
8	0	0	0	0	505	420	
9	0	0	0	0	508	420	
10	0	0	0	0	510	419	
11	0	0	0	0	508	420	
12	0	0	0	0	510	420	
13	0	0	0	0	513	420	
14	0	0	0	0	516	420	
15	0	0	0	0	518	420	
0	0	0	0	0	523	420	
1	0	0	0	0	526	420	
2	0	0	0	0	526	420	
3	0	0	0	0	519	420	
4	0	0	0	0	512	420	
5	0	0	0	0	503	420	
6	0	0	0	0	495	420	
7	0	0	0	0	493	420	
8	0	0	0	0	498	420	
9	0	0	0	0	504	419	
10	0	0	0	0	512	420	
11	0	0	0	0	522	420	
12	0	0	0	0	525	420	
13	0	0	0	0	516	420	
14	0	0	0	0	509	420	
15	0	0	0	0	506	420	
0	0	0	0	0	510	420	
1	0	0	0	0	519	420	
2	0	0	0	0	526	420	
3	0	0	0	0	527	420	
4	0	0	0	0	528	420	
5	0	0	0	0	523	420	
6	0	0	0	0	518	420	
7	0	0	0	0	517	420	
8	0	0	0	0	514	420	
9	0	0	0	0	511	420	
10	0	0	0	0	508	420	
11	0	0	0	0	504	420	
12	0	0	0	0	504	419	
13	0	0	0	0	504	420	
14	0	0	0	0	504	420	
15	0	0	0	0	508	420	
0	0	0	0	0	512	420	
1	0	0	0	0	519	420	
2	0	0	0	0	519	420	
3	0	0	0	0	518	420	
4	0	0	0	0	518	420	
5	0	0	0	0	517	420	
6	0	0	0	0	519	420	
7	0	0	0	0	523	420	
8	0	0	0	0	524	420	
9	0	0	0	0	522	420	
10	0	0	0	0	525	420	
11	0	0	0	0	524	420	
12	0	0	0	0	521	420	
13	0	0	0	0	513	420	
14	0	0	0	0	501	420	
15	0	0	0	0	490	420	
0	0	0	0	0	487	420	
1	0	0	0	0	492	420	
2	0	0	0	0	493	420	
3	0	0	0	0	490	420	
4	0	0	0	0	486	420	
5	0	0	0	0	484	420	
6	0	0	0	0	489	420	
7	0	0	0	0	504	420	
8	0	0	0	0	513	420	
9	0	0	0	0	511	420	
10	0	0	0	0	517	420	
11	0	0	0	0	522	420	
12	0	0	0	0	524	420	
13	0	0	0	0	526	420	
14	0	0	0	0	525	420	
15	0	0	0	0	514	420	
0	0	0	0	0	510	420	
1	0	0	0	0	507	420	
2	0	0	0	0	510	420	
3	0	0	0	0	514	420	
4	0	0	0	0	514	420	
5	0	0	0	0	514	420	
6	0	0	0	0	522	420	
7	0	0	0	0	532	420	
8	0	0	0	0	544	420	
9	0	0	0	0	548	420	
10	0	0	0	0	543	420	
11	0	0	0	0	531	420	
12	0	0	0	0	524	420	
13	0	0	0	0	521	420	
14	0	0	0	0	522	420	
15	0	0	0	0	526	420	
0	0	0	0	0	519	420	
1	0	0	0	0	512	420	
2	0	0	0	0	511	421	
3	0	0	0	0	507	420	
4	0	0	0	0	505	420	
5	0	0	0	0	511	420	
6	0	0	0	0	520	420	
7	0	0	0	0	525	421	
8	0	0	0	0	520	420	
9	0	0	0	0	517	420	
10	0	0	0	0	524	421	
11	0	0	0	0	524	420	
12	0	0	0	0	521	421	
13	0	0	0	0	513	421	
14	0	0	0	0	512	421	
15	0	0	0	0	514	421	
0	0	0	0	0	514	421	
1	0	0	0	0	512	421	
2	0	0	0	0	512	421	
3	0	0	0	0	508	421	
4	0	0	0	0	506	421	
5	0	0	0	0	507	421	
6	0	0	0	0	513	421	
7	0	0	0	0	515	421	
8	0	0	0	0	521	421	
9	0	0	0	0	532	421	
10	0	0	0	0	541	421	
11	0	0	0	0	550	421	
12	0	0	0	0	551	421	
13	0	0	0	0	546	421	
14	0	0	0	0	543	421	
15	0	0	0	0	540	421	
0	0	0	0	0	537	422	
1	0	0	0	0	537	421	
2	0	0	0	0	535	421	
3	0	0	0	0	532	421	
4	0	0	0	0	526	422	
5	0	0	0	0	517	422	
6	0	0	0	0	509	421	
7	0	0	0	0	504	422	
8	0	0	0	0	495	422	
9	0	0	0	0	488	422	
10	0	0	0	0	486	421	
11	0	0	0	0	482	422	
12	0	0	0	0	484	422	
13	0	0	0	0	487	422	
14	0	0	0	0	493	422	
15	0	0	0	0	494	422	
0	0	0	0	0	496	421	
1	0	0	0	0	501	422	
2	0	0	0	0	505	422	
3	0	0	0	0	513	422	
4	0	0	0	0	526	422	
5	0	0	0	0	544	422	
6	0	0	0	0	556	422	
7	0	0	0	0	561	422	
8	0	0	0	0	561	422	
9	0	0	0	0	561	422	
10	0	0	0	0	561	422	
11	0	0	0	0	558	422	
12	0	0	0	0	550	422	
13	0	0	0	0	540	422	
14	0	0	0	0	530	422	
15	0	0	0	0	521	422	
0	0	0	0	0	519	422	
1	0	0	0	0	521	422	
2	0	0	0	0	531	422	
3	0	0	0	0	529	422	
4	0	0	0	0	529	422	
5	0	0	0	0	533	422	
6	0	0	0	0	538	422	
7	0	0	0	0	539	422	
8	0	0	0	0	537	422	
9	0	0	0	0	531	422	
10	0	0	0	0	528	422	
11	0	0	0	0	532	422	
12	0	0	0	0	541	422	
13	0	0	0	0	547	422	
14	0	0	0	0	548	422	
15	0	0	0	0	543	422	
0	0	0	0	0	531	422	
1	0	0	0	0	524	422	
2	0	0	0	0	527	423	
3	0	0	0	0	531	422	
4	0	0	0	0	534	422	
5	0	0	0	0	541	422	
6	0	0	0	0	545	423	
7	0	0	0	0	542	423	
8	0	0	0	0	546	422	
9	0	0	0	0	553	422	
10	0	0	0	0	558	422	
11	0	0	0	0	559	423	
12	0	0	0	0	560	423	
13	0	0	0	0	561	423	
14	0	0	0	0	554	423	
15	0	0	0	0	546	423	
0	0	0	0	0	545	423	
1	0	0	0	0	544	423	
2	0	0	0	0	542	423	
3	0	0	0	0	550	423	
4	0	0	0	0	559	423	
5	0	0	0	0	566	423	
6	0	0	0	0	564	423	
7	0	0	0	0	558	423	
8	0	0	0	0	547	423	
9	0	0	0	0	537	423	
10	0	0	0	0	529	423	
11	0	0	0	0	526	423	
12	0	0	0	0	526	423	
13	0	0	0	0	527	423	
14	0	0	0	0	517	423	
15	0	0	0	0	506	423	
0	0	0	0	0	500	423	
1	0	0	0	0	499	423	
2	0	0	0	0	496	423	
3	0	0	0	0	492	423	
4	0	0	0	0	493	423	
5	0	0	0	0	499	423	
6	0	0	0	0	511	423	
7	0	0	0	0	513	423	
8	0	0	0	0	517	423	
9	0	0	0	0	515	423	
10	0	0	0	0	511	423	
11	0	0	0	0	509	423	
12	0	0	0	0	511	423	
13	0	0	0	0	515	423	
14	0	0	0	0	523	423	
15	0	0	0	0	531	423	
0	0	0	0	0	535	423	
1	0	0	0	0	540	423	
2	0	0	0	0	542	423	
3	0	0	0	0	544	423	
4	0	0	0	0	543	423	
5	0	0	0	0	537	423	
6	0	0	0	0	523	423	
7	0	0	0	0	509	423	
8	0	0	0	0	498	423	
9	0	0	0	0	492	423	
10	0	0	0	0	489	423	
11	0	0	0	0	490	423	
12	0	0	0	0	491	423	
13	0	0	0	0	489	423	
14	0	0	0	0	485	423	
15	0	0	0	0	481	423	
0	0	0	0	0	480	423	
1	0	0	0	0	482	423	
2	0	0	0	0	487	423	
3	0	0	0	0	490	423	
4	0	0	0	0	496	423	
5	0	0	0	0	500	423	
6	0	0	0	0	506	423	
7	0	0	0	0	508	423	
8	0	0	0	0	508	424	
9	0	0	0	0	505	423	
10	0	0	0	0	502	423	
11	0	0	0	0	499	423	
12	0	0	0	0	493	423	
13	0	0	0	0	487	424	
14	0	0	0	0	481	423	
15	0	0	0	0	477	423	
0	0	0	0	0	483	423	
1	0	0	0	0	497	423	
2	0	0	0	0	502	423	
3	0	0	0	0	501	423	
4	0	0	0	0	510	423	
5	0	0	0	0	521	423	
6	0	0	0	0	518	423	
7	0	0	0	0	512	424	
8	0	0	0	0	508	423	
9	0	0	0	0	499	423	
10	0	0	0	0	494	423	
11	0	0	0	0	484	423	
12	0	0	0	0	482	424	
13	0	0	0	0	487	423	
14	0	0	0	0	496	423	
15	0	0	0	0	509	424	
0	0	0	0	0	526	423	
1	0	0	0	0	539	424	
2	0	0	0	0	542	423	
3	0	0	0	0	541	424	
4	0	0	0	0	537	423	
5	0	0	0	0	534	424	
6	0	0	0	0	534	424	
7	0	0	0	0	535	424	
8	0	0	0	0	536	424	
9	0	0	0	0	540	423	
10	0	0	0	0	542	424	
11	0	0	0	0	539	424	
12	0	0	0	0	539	424	
13	0	0	0	0	541	424	
14	0	0	0	0	547	424	
15	0	0	0	0	551	423	
0	0	0	0	0	558	424	
1	0	0	0	0	566	424	
2	0	0	0	0	574	424	
3	0	0	0	0	583	424	
4	0	0	0	0	598	424	
5	0	0	0	0	623	424	
6	0	0	0	0	648	424	
7	0	0	0	0	674	424	
8	0	0	0	0	693	424	
9	0	0	0	0	712	424	
10	0	0	0	0	734	424	
11	0	0	0	0	757	424	
12	0	0	0	0	771	424	
13	0	0	0	0	777	424	
14	0	0	0	0	781	424	
15	0	0	0	0	793	425	
0	0	0	0	0	807	424	
1	0	0	0	0	810	424	
2	0	0	0	0	815	424	
3	0	0	0	0	813	424	
4	0	0	0	0	812	424	
5	0	0	0	0	819	424	
6	0	0	0	0	821	424	
7	0	0	0	0	816	424	
8	0	0	0	0	815	424	
9	0	0	0	0	805	425	
10	0	0	0	0	795	424	
11	0	0	0	0	786	425	
12	0	0	0	0	772	424	
13	0	0	0	0	760	424	
14	0	0	0	0	744	425	
15	0	0	0	0	723	424	
0	0	0	0	0	702	424	
1	0	0	0	0	683	424	
2	0	0	0	0	662	424	
3	0	0	0	0	642	425	
4	0	0	0	0	621	424	
5	0	0	0	0	603	424	
6	0	0	0	0	591	424	
7	0	0	0	0	580	424	
8	0	0	0	0	569	425	
9	0	0	0	0	556	424	
10	0	0	0	0	542	425	
11	0	0	0	0	532	425	
12	0	0	0	0	522	425	
13	0	0	0	0	509	425	
14	0	0	0	0	495	425	
15	0	0	0	0	479	424	
0	0	0	0	0	459	425	
1	0	0	0	0	437	425	
2	0	0	0	0	418	425	
3	0	0	0	0	412	425	
4	0	0	0	0	418	425	
5	0	0	0	0	425	425	
6	0	0	0	0	427	425	
7	0	0	0	0	423	425	
8	0	0	0	0	426	425	
9	0	0	0	0	432	425	
10	0	0	0	0	434	425	
11	0	0	0	0	429	425	
12	0	0	0	0	423	425	
13	0	0	0	0	424	425	
14	0	0	0	0	436	425	
15	0	0	0	0	446	425	
0	0	0	0	0	448	425	
1	0	0	0	0	453	425	
2	0	0	0	0	454	425	
3	0	0	0	0	456	425	
4	0	0	0	0	459	425	
5	0	0	0	0	458	425	
6	0	0	0	0	455	425	
7	0	0	0	0	448	425	
8	0	0	0	0	447	425	
9	0	0	0	0	445	425	
10	0	0	0	0	440	425	
11	0	0	0	0	429	425	
12	0	0	0	0	422	425	
13	0	0	0	0	421	425	
14	0	0	0	0	427	425	
15	0	0	0	0	430	425	
0	0	0	0	0	433	425	
1	0	0	0	0	432	425	
2	0	0	0	0	429	425	
3	0	0	0	0	433	425	
4	0	0	0	0	445	425	
5	0	0	0	0	449	425	
6	0	0	0	0	451	425	
7	0	0	0	0	453	425	
8	0	0	0	0	457	425	
9	0	0	0	0	457	425	
10	0	0	0	0	455	426	
11	0	0	0	0	453	425	
12	0	0	0	0	443	425	
13	0	0	0	0	432	425	
14	0	0	0	0	425	425	
15	0	0	0	0	423	426	
0	0	0	0	0	425	425	
1	0	0	0	0	430	425	
2	0	0	0	0	434	425	
3	0	0	0	0	439	425	
4	0	0	0	0	451	426	
5	0	0	0	0	460	425	
6	0	0	0	0	466	426	
7	0	0	0	0	465	426	
8	0	0	0	0	465	426	
9	0	0	0	0	471	426	
10	0	0	0	0	479	426	
11	0	0	0	0	486	426	
12	0	0	0	0	489	426	
13	0	0	0	0	490	426	
14	0	0	0	0	487	426	
15	0	0	0	0	480	426	
0	0	0	0	0	476	426	
1	0	0	0	0	466	426	
2	0	0	0	0	464	426	
3	0	0	0	0	462	426	
4	0	0	0	0	464	426	
5	0	0	0	0	463	426	
6	0	0	0	0	462	426	
7	0	0	0	0	457	426	
8	0	0	0	0	451	426	
9	0	0	0	0	451	426	
10	0	0	0	0	457	426	
11	0	0	0	0	471	426	
12	0	0	0	0	482	426	
13	0	0	0	0	493	426	
14	0	0	0	0	495	426	
15	0	0	0	0	489	426	
0	0	0	0	0	489	426	
1	0	0	0	0	492	426	
2	0	0	0	0	490	426	
3	0	0	0	0	484	426	
4	0	0	0	0	478	426	
5	0	0	0	0	480	426	
6	0	0	0	0	489	426	
7	0	0	0	0	495	427	
8	0	0	0	0	485	426	
9	0	0	0	0	473	426	
10	0	0	0	0	470	426	
11	0	0	0	0	464	426	
12	0	0	0	0	466	427	
13	0	0	0	0	473	427	
14	0	0	0	0	481	427	
15	0	0	0	0	490	427	
0	0	0	0	0	497	426	
1	0	0	0	0	496	427	
2	0	0	0	0	498	426	
3	0	0	0	0	500	427	
4	0	0	0	0	495	426	
5	0	0	0	0	492	427	
6	0	0	0	0	490	427	
7	0	0	0	0	491	426	
8	0	0	0	0	493	427	
9	0	0	0	0	497	427	
10	0	0	0	0	495	427	
11	0	0	0	0	497	427	
12	0	0	0	0	496	426	
13	0	0	0	0	493	426	
14	0	0	0	0	493	426	
15	0	0	0	0	496	426	
0	0	0	0	0	500	427	
1	0	0	0	0	509	426	
2	0	0	0	0	518	427	
3	0	0	0	0	524	427	
4	0	0	0	0	534	427	
5	0	0	0	0	541	427	
6	0	0	0	0	540	427	
7	0	0	0	0	534	426	
8	0	0	0	0	516	426	
9	0	0	0	0	499	426	
10	0	0	0	0	492	427	
11	0	0	0	0	495	427	
12	0	0	0	0	498	426	
13	0	0	0	0	501	426	
14	0	0	0	0	504	426	
15	0	0	0	0	512	427	
0	0	0	0	0	519	426	
1	0	0	0	0	524	426	
2	0	0	0	0	528	426	
3	0	0	0	0	531	426	
4	0	0	0	0	528	427	
5	0	0	0	0	524	426	
6	0	0	0	0	519	426	
7	0	0	0	0	515	426	
8	0	0	0	0	506	426	
9	0	0	0	0	502	427	
10	0	0	0	0	506	426	
11	0	0	0	0	516	426	
12	0	0	0	0	527	426	
13	0	0	0	0	535	426	
14	0	0	0	0	538	427	
15	0	0	0	0	541	426	
0	0	0	0	0	536	426	
1	0	0	0	0	531	426	
2	0	0	0	0	522	426	
3	0	0	0	0	511	426	
4	0	0	0	0	505	426	
5	0	0	0	0	504	426	
6	0	0	0	0	510	426	
7	0	0	0	0	517	426	
8	0	0	0	0	525	426	
9	0	0	0	0	531	426	
10	0	0	0	0	541	426	
11	0	0	0	0	544	426	
12	0	0	0	0	544	426	
13	0	0	0	0	542	426	
14	0	0	0	0	539	426	
15	0	0	0	0	539	426	
0	0	0	0	0	540	426	
1	0	0	0	0	537	426	
2	0	0	0	0	536	426	
3	0	0	0	0	531	426	
4	0	0	0	0	528	426	
5	0	0	0	0	526	426	
6	0	0	0	0	523	426	
7	0	0	0	0	524	426	
8	0	0	0	0	516	426	
9	0	0	0	0	515	426	
10	0	0	0	0	512	426	
11	0	0	0	0	514	426	
12	0	0	0	0	515	426	
13	0	0	0	0	519	426	
14	0	0	0	0	525	426	
15	0	0	0	0	524	426	
0	0	0	0	0	524	426	
1	0	0	0	0	535	426	
2	0	0	0	0	544	426	
3	0	0	0	0	552	426	
4	0	0	0	0	562	426	
5	0	0	0	0	566	426	
6	0	0	0	0	564	426	
7	0	0	0	0	561	426	
8	0	0	0	0	564	426	
9	0	0	0	0	568	426	
10	0	0	0	0	573	426	
11	0	0	0	0	568	426	
12	0	0	0	0	552	426	
13	0	0	0	0	542	426	
14	0	0	0	0	537	426	
15	0	0	0	0	536	426	
0	0	0	0	0	535	426	
1	0	0	0	0	543	426	
2	0	0	0	0	556	426	
3	0	0	0	0	567	426	
4	0	0	0	0	579	426	
5	0	0	0	0	585	427	
6	0	0	0	0	590	426	
7	0	0	0	0	592	426	
8	0	0	0	0	593	426	
9	0	0	0	0	586	426	
10	0	0	0	0	574	427	
11	0	0	0	0	566	426	
12	0	0	0	0	551	426	
13	0	0	0	0	541	426	
14	0	0	0	0	536	426	
15	0	0	0	0	536	426	
0	0	0	0	0	543	426	
1	0	0	0	0	548	426	
2	0	0	0	0	551	426	
3	0	0	0	0	551	426	
4	0	0	0	0	543	427	
5	0	0	0	0	541	426	
6	0	0	0	0	544	426	
7	0	0	0	0	544	426	
8	0	0	0	0	541	426	
9	0	0	0	0	537	427	
10	0	0	0	0	531	426	
11	0	0	0	0	532	426	
12	0	0	0	0	528	426	
13	0	0	0	0	524	426	
14	0	0	0	0	524	427	
15	0	0	0	0	531	426	
0	0	0	0	0	539	426	
1	0	0	0	0	545	426	
2	0	0	0	0	548	426	
3	0	0	0	0	545	427	
4	0	0	0	0	544	426	
5	0	0	0	0	541	426	
6	0	0	0	0	536	426	
7	0	0	0	0	536	426	
8	0	0	0	0	536	426	
9	0	0	0	0	534	427	
10	0	0	0	0	532	427	
11	0	0	0	0	534	426	
12	0	0	0	0	541	426	
13	0	0	0	0	552	427	
14	0	0	0	0	555	426	
15	0	0	0	0	548	427	
0	0	0	0	0	539	427	
1	0	0	0	0	527	426	
2	0	0	0	0	519	426	
3	0	0	0	0	518	426	
4	0	0	0	0	525	426	
5	0	0	0	0	532	426	
6	0	0	0	0	537	427	
7	0	0	0	0	542	427	
8	0	0	0	0	538	426	
9	0	0	0	0	528	426	
10	0	0	0	0	519	426	
11	0	0	0	0	510	427	
12	0	0	0	0	504	427	
13	0	0	0	0	504	427	
14	0	0	0	0	511	427	
15	0	0	0	0	521	427	
0	0	0	0	0	530	427	
1	0	0	0	0	528	427	
2	0	0	0	0	517	427	
3	0	0	0	0	513	427	
4	0	0	0	0	506	427	
5	0	0	0	0	495	427	
6	0	0	0	0	491	427	
7	0	0	0	0	487	427	
8	0	0	0	0	486	427	
9	0	0	0	0	487	427	
10	0	0	0	0	485	427	
11	0	0	0	0	489	427	
12	0	0	0	0	498	427	
13	0	0	0	0	497	427	
14	0	0	0	0	490	427	
15	0	0	0	0	492	427	
0	0	0	0	0	498	427	
1	0	0	0	0	505	427	
2	0	0	0	0	511	427	
3	0	0	0	0	511	427	
4	0	0	0	0	510	427	
5	0	0	0	0	510	427	
6	0	0	0	0	513	427	
7	0	0	0	0	512	427	
8	0	0	0	0	508	427	
9	0	0	0	0	505	427	
10	0	0	0	0	502	427	
11	0	0	0	0	498	427	
12	0	0	0	0	493	427	
13	0	0	0	0	489	427	
14	0	0	0	0	487	427	
15	0	0	0	0	485	427	
0	0	0	0	0	485	427	
1	0	0	0	0	481	427	
2	0	0	0	0	477	427	
3	0	0	0	0	481	427	
4	0	0	0	0	485	427	
5	0	0	0	0	486	427	
6	0	0	0	0	486	427	
7	0	0	0	0	488	427	
8	0	0	0	0	487	427	
9	0	0	0	0	487	427	
10	0	0	0	0	481	427	
11	0	0	0	0	477	427	
12	0	0	0	0	473	427	
13	0	0	0	0	474	427	
14	0	0	0	0	475	427	
15	0	0	0	0	476	427	
0	0	0	0	0	477	427	
1	0	0	0	0	476	427	
2	0	0	0	0	472	427	
3	0	0	0	0	470	427	
4	0	0	0	0	472	427	
5	0	0	0	0	477	427	
6	0	0	0	0	487	427	
7	0	0	0	0	497	427	
8	0	0	0	0	501	427	
9	0	0	0	0	508	427	
10	0	0	0	0	511	427	
11	0	0	0	0	516	427	
12	0	0	0	0	519	427	
13	0	0	0	0	515	427	
14	0	0	0	0	508	427	
15	0	0	0	0	504	427	
0	0	0	0	0	509	427	
1	0	0	0	0	515	427	
2	0	0	0	0	518	428	
3	0	0	0	0	522	427	
4	0	0	0	0	525	427	
5	0	0	0	0	523	427	
6	0	0	0	0	513	427	
7	0	0	0	0	504	427	
8	0	0	0	0	496	427	
9	0	0	0	0	485	427	
10	0	0	0	0	478	427	
11	0	0	0	0	476	427	
12	0	0	0	0	476	427	
13	0	0	0	0	480	427	
14	0	0	0	0	483	428	
15	0	0	0	0	487	427	
0	0	0	0	0	492	427	
1	0	0	0	0	491	428	
2	0	0	0	0	489	427	
3	0	0	0	0	493	427	
4	0	0	0	0	500	427	
5	0	0	0	0	504	427	
6	0	0	0	0	505	428	
7	0	0	0	0	502	427	
8	0	0	0	0	501	428	
9	0	0	0	0	505	427	
10	0	0	0	0	503	427	
11	0	0	0	0	504	428	
12	0	0	0	0	506	427	
13	0	0	0	0	511	427	
14	0	0	0	0	512	428	
15	0	0	0	0	503	427	
0	0	0	0	0	500	428	
1	0	0	0	0	506	427	
2	0	0	0	0	514	427	
3	0	0	0	0	519	428	
4	0	0	0	0	523	427	
5	0	0	0	0	522	428	
6	0	0	0	0	515	427	
7	0	0	0	0	504	427	
8	0	0	0	0	498	427	
9	0	0	0	0	497	427	
10	0	0	0	0	502	428	
11	0	0	0	0	507	427	
12	0	0	0	0	511	427	
13	0	0	0	0	513	427	
14	0	0	0	0	516	428	
15	0	0	0	0	511	428	
0	0	0	0	0	511	427	
1	0	0	0	0	511	427	
2	0	0	0	0	508	427	
3	0	0	0	0	500	427	
4	0	0	0	0	489	428	
5	0	0	0	0	487	427	
6	0	0	0	0	492	428	
7	0	0	0	0	497	428	
8	0	0	0	0	504	427	
9	0	0	0	0	508	428	
10	0	0	0	0	504	427	
11	0	0	0	0	498	427	
12	0	0	0	0	491	427	
13	0	0	0	0	491	427	
14	0	0	0	0	497	428	
15	0	0	0	0	499	428	
0	0	0	0	0	498	428	
1	0	0	0	0	501	428	
2	0	0	0	0	508	428	
3	0	0	0	0	512	428	
4	0	0	0	0	513	427	
5	0	0	0	0	513	427	
6	0	0	0	0	513	427	
7	0	0	0	0	511	427	
8	0	0	0	0	516	428	
9	0	0	0	0	526	428	
10	0	0	0	0	530	428	
11	0	0	0	0	530	428	
12	0	0	0	0	528	427	
13	0	0	0	0	525	428	
14	0	0	0	0	523	427	
15	0	0	0	0	523	427	
0	0	0	0	0	523	427	
1	0	0	0	0	521	428	
2	0	0	0	0	520	428	
3	0	0	0	0	520	428	
4	0	0	0	0	519	428	
5	0	0	0	0	524	428	
6	0	0	0	0	523	427	
7	0	0	0	0	523	428	
8	0	0	0	0	519	428	
9	0	0	0	0	510	427	
10	0	0	0	0	501	427	
11	0	0	0	0	494	427	
12	0	0	0	0	491	428	
13	0	0	0	0	489	427	
14	0	0	0	0	499	428	
15	0	0	0	0	511	428	
0	0	0	0	0	521	427	
1	0	0	0	0	528	428	
2	0	0	0	0	533	427	
3	0	0	0	0	531	427	
4	0	0	0	0	526	427	
5	0	0	0	0	522	427	
6	0	0	0	0	516	428	
7	0	0	0	0	512	427	
8	0	0	0	0	510	428	
9	0	0	0	0	512	427	
10	0	0	0	0	513	427	
11	0	0	0	0	519	428	
12	0	0	0	0	530	427	
13	0	0	0	0	530	427	
14	0	0	0	0	526	427	
15	0	0	0	0	523	428	
0	0	0	0	0	512	428	
1	0	0	0	0	507	427	
2	0	0	0	0	501	427	
3	0	0	0	0	501	427	
4	0	0	0	0	501	427	
5	0	0	0	0	500	428	
6	0	0	0	0	503	427	
7	0	0	0	0	503	427	
8	0	0	0	0	502	427	
9	0	0	0	0	506	427	
10	0	0	0	0	516	427	
11	0	0	0	0	523	427	
12	0	0	0	0	521	427	
13	0	0	0	0	517	427	
14	0	0	0	0	514	427	
15	0	0	0	0	514	427	
0	0	0	0	0	510	427	
1	0	0	0	0	504	427	
2	0	0	0	0	498	427	
3	0	0	0	0	493	427	
4	0	0	0	0	491	428	
5	0	0	0	0	493	427	
6	0	0	0	0	498	427	
7	0	0	0	0	504	428	
8	0	0	0	0	512	427	
9	0	0	0	0	522	427	
10	0	0	0	0	529	427	
11	0	0	0	0	527	427	
12	0	0	0	0	529	427	
13	0	0	0	0	534	427	
14	0	0	0	0	539	427	
15	0	0	0	0	543	427	
0	0	0	0	0	540	427	
1	0	0	0	0	531	427	
2	0	0	0	0	518	427	
3	0	0	0	0	497	428	
4	0	0	0	0	482	427	
5	0	0	0	0	488	427	
6	0	0	0	0	502	427	
7	0	0	0	0	511	427	
8	0	0	0	0	519	427	
9	0	0	0	0	522	427	
10	0	0	0	0	523	427	
11	0	0	0	0	517	427	
12	0	0	0	0	513	427	
13	0	0	0	0	514	427	
14	0	0	0	0	517	427	
15	0	0	0	0	519	427	
0	0	0	0	0	529	427	
1	0	0	0	0	538	427	
2	0	0	0	0	543	428	
3	0	0	0	0	538	427	
4	0	0	0	0	528	427	
5	0	0	0	0	528	427	
6	0	0	0	0	524	427	
7	0	0	0	0	514	427	
8	0	0	0	0	514	427	
9	0	0	0	0	519	427	
10	0	0	0	0	523	427	
11	0	0	0	0	521	427	
12	0	0	0	0	523	427	
13	0	0	0	0	521	427	
14	0	0	0	0	513	427	
15	0	0	0	0	504	427	
0	0	0	0	0	494	427	
1	0	0	0	0	481	427	
2	0	0	0	0	470	427	
3	0	0	0	0	471	427	
4	0	0	0	0	478	427	
5	0	0	0	0	483	427	
6	0	0	0	0	487	427	
7	0	0	0	0	499	427	
8	0	0	0	0	513	427	
9	0	0	0	0	521	427	
10	0	0	0	0	533	427	
11	0	0	0	0	530	427	
12	0	0	0	0	519	427	
13	0	0	0	0	511	427	
14	0	0	0	0	507	427	
15	0	0	0	0	506	427	
0	0	0	0	0	507	427	
1	0	0	0	0	508	427	
2	0	0	0	0	514	427	
3	0	0	0	0	515	427	
4	0	0	0	0	512	427	
5	0	0	0	0	505	427	
6	0	0	0	0	507	427	
7	0	0	0	0	518	427	
8	0	0	0	0	531	427	
9	0	0	0	0	535	427	
10	0	0	0	0	535	427	
11	0	0	0	0	536	427	
12	0	0	0	0	533	427	
13	0	0	0	0	527	427	
14	0	0	0	0	519	427	
15	0	0	0	0	513	427	
0	0	0	0	0	510	427	
1	0	0	0	0	512	427	
2	0	0	0	0	513	427	
3	0	0	0	0	513	427	
4	0	0	0	0	518	427	
5	0	0	0	0	523	427	
6	0	0	0	0	517	427	
7	0	0	0	0	511	427	
8	0	0	0	0	510	427	
9	0	0	0	0	510	427	
10	0	0	0	0	508	427	
11	0	0	0	0	507	427	
12	0	0	0	0	511	427	
13	0	0	0	0	512	427	
14	0	0	0	0	519	427	
15	0	0	0	0	527	427	
0	0	0	0	0	529	427	
1	0	0	0	0	523	427	
2	0	0	0	0	520	427	
3	0	0	0	0	522	427	
4	0	0	0	0	524	427	
5	0	0	0	0	524	427	
6	0	0	0	0	518	427	
7	0	0	0	0	520	427	
8	0	0	0	0	522	427	
9	0	0	0	0	519	426	
10	0	0	0	0	511	427	
11	0	0	0	0	504	427	
12	0	0	0	0	498	427	
13	0	0	0	0	496	427	
14	0	0	0	0	504	427	
15	0	0	0	0	513	427	
0	0	0	0	0	527	427	
1	0	0	0	0	541	427	
2	0	0	0	0	543	427	
3	0	0	0	0	541	427	
4	0	0	0	0	534	427	
5	0	0	0	0	533	427	
6	0	0	0	0	536	427	
7	0	0	0	0	534	427	
8	0	0	0	0	536	427	
9	0	0	0	0	540	427	
10	0	0	0	0	542	427	
11	0	0	0	0	538	427	
12	0	0	0	0	530	427	
13	0	0	0	0	519	427	
14	0	0	0	0	510	427	
15	0	0	0	0	508	427	
0	0	0	0	0	511	427	
1	0	0	0	0	514	427	
2	0	0	0	0	516	427	
3	0	0	0	0	515	427	
4	0	0	0	0	511	426	
5	0	0	0	0	513	426	
6	0	0	0	0	518	427	
7	0	0	0	0	519	426	
8	0	0	0	0	515	427	
9	0	0	0	0	514	427	
10	0	0	0	0	517	427	
11	0	0	0	0	523	427	
12	0	0	0	0	532	427	
13	0	0	0	0	535	427	
14	0	0	0	0	534	427	
15	0	0	0	0	532	427	
0	0	0	0	0	530	427	
1	0	0	0	0	528	427	
2	0	0	0	0	525	427	
3	0	0	0	0	513	427	
4	0	0	0	0	504	427	
5	0	0	0	0	500	427	
6	0	0	0	0	500	427	
7	0	0	0	0	504	427	
8	0	0	0	0	515	427	
9	0	0	0	0	530	427	
10	0	0	0	0	544	427	
11	0	0	0	0	548	427	
12	0	0	0	0	551	427	
13	0	0	0	0	546	427	
14	0	0	0	0	538	427	
15	0	0	0	0	532	427	
0	0	0	0	0	526	427	
1	0	0	0	0	524	427	
2	0	0	0	0	525	427	
3	0	0	0	0	531	427	
4	0	0	0	0	540	427	
5	0	0	0	0	547	427	
6	0	0	0	0	545	427	
7	0	0	0	0	541	427	
8	0	0	0	0	538	427	
9	0	0	0	0	532	427	
10	0	0	0	0	533	427	
11	0	0	0	0	538	427	
12	0	0	0	0	534	427	
13	0	0	0	0	530	427	
14	0	0	0	0	527	427	
15	0	0	0	0	526	426	
0	0	0	0	0	530	427	
1	0	0	0	0	534	427	
2	0	0	0	0	538	427	
3	0	0	0	0	540	427	
4	0	0	0	0	543	427	
5	0	0	0	0	545	427	
6	0	0	0	0	545	427	
7	0	0	0	0	540	427	
8	0	0	0	0	531	427	
9	0	0	0	0	527	427	
10	0	0	0	0	526	427	
11	0	0	0	0	526	427	
12	0	0	0	0	529	427	
13	0	0	0	0	529	427	
14	0	0	0	0	530	426	
15	0	0	0	0	532	427	
0	0	0	0	0	531	427	
